# Region        : cellZone component_4
# Cells         : 46
# Volume        : 5.53692765e-02
# Time          	volAverage(T)
1               	3.01815853e+02
2               	3.03597585e+02
3               	3.05263859e+02
4               	3.06858023e+02
5               	3.08411353e+02
6               	3.09935272e+02
7               	3.11429253e+02
8               	3.12898685e+02
9               	3.14344445e+02
10              	3.15765952e+02
11              	3.17156899e+02
12              	3.18513950e+02
13              	3.19834200e+02
14              	3.21120846e+02
15              	3.22369917e+02
16              	3.23585978e+02
17              	3.24757424e+02
18              	3.25979968e+02
19              	3.27203251e+02
20              	3.28411660e+02
21              	3.29610039e+02
22              	3.30805735e+02
23              	3.32004178e+02
24              	3.33196100e+02
25              	3.34393282e+02
26              	3.35560700e+02
27              	3.36658189e+02
28              	3.37707356e+02
29              	3.38683802e+02
30              	3.39681352e+02
31              	3.40725850e+02
32              	3.41734974e+02
33              	3.42734666e+02
34              	3.43730268e+02
35              	3.44731636e+02
36              	3.45713917e+02
37              	3.46720407e+02
38              	3.47719164e+02
39              	3.48652772e+02
40              	3.49478429e+02
41              	3.50265220e+02
42              	3.51049489e+02
43              	3.51834057e+02
44              	3.52619672e+02
45              	3.53396139e+02
46              	3.54178347e+02
47              	3.54908580e+02
48              	3.55620674e+02
49              	3.56309294e+02
50              	3.56978773e+02
51              	3.57652407e+02
52              	3.58318339e+02
53              	3.58952839e+02
54              	3.59518343e+02
55              	3.59988545e+02
56              	3.60447860e+02
57              	3.60806659e+02
58              	3.61211198e+02
59              	3.61667914e+02
60              	3.62102533e+02
61              	3.62510351e+02
62              	3.62906297e+02
63              	3.63293779e+02
64              	3.63666013e+02
65              	3.64035282e+02
66              	3.64419367e+02
67              	3.64812650e+02
68              	3.65129834e+02
69              	3.65323268e+02
70              	3.65496755e+02
71              	3.65647880e+02
72              	3.65881431e+02
73              	3.66218975e+02
74              	3.66550742e+02
75              	3.66892776e+02
76              	3.67222042e+02
77              	3.67558748e+02
78              	3.67926445e+02
79              	3.68324138e+02
80              	3.68701575e+02
81              	3.69033287e+02
82              	3.69307345e+02
83              	3.69558321e+02
84              	3.69717812e+02
85              	3.69895266e+02
86              	3.70137492e+02
87              	3.70329833e+02
88              	3.70506946e+02
89              	3.70640543e+02
90              	3.70775073e+02
91              	3.70958884e+02
92              	3.71161803e+02
93              	3.71354532e+02
94              	3.71514742e+02
95              	3.71629359e+02
96              	3.71730675e+02
97              	3.71807609e+02
98              	3.71959098e+02
99              	3.72088849e+02
100             	3.72193639e+02
101             	3.72276154e+02
102             	3.72336681e+02
103             	3.72455068e+02
104             	3.72639172e+02
105             	3.72732921e+02
106             	3.72788381e+02
107             	3.72812066e+02
108             	3.72772610e+02
109             	3.72783472e+02
110             	3.72830887e+02
111             	3.72844951e+02
112             	3.72816665e+02
113             	3.72744513e+02
114             	3.72660472e+02
115             	3.72611451e+02
116             	3.72611122e+02
117             	3.72605696e+02
118             	3.72531460e+02
119             	3.72418809e+02
120             	3.72301652e+02
121             	3.72196396e+02
122             	3.72190653e+02
123             	3.72147726e+02
124             	3.72043319e+02
125             	3.71951217e+02
126             	3.71819574e+02
127             	3.71693916e+02
128             	3.71699182e+02
129             	3.71734295e+02
130             	3.71688965e+02
131             	3.71623090e+02
132             	3.71543809e+02
133             	3.71472234e+02
134             	3.71529627e+02
135             	3.71576246e+02
136             	3.71592014e+02
137             	3.71567939e+02
138             	3.71511880e+02
139             	3.71459663e+02
140             	3.71498236e+02
141             	3.71550086e+02
142             	3.71573525e+02
143             	3.71607492e+02
144             	3.71515684e+02
145             	3.71410530e+02
146             	3.71288256e+02
147             	3.71251871e+02
148             	3.71193453e+02
149             	3.71119932e+02
150             	3.71033624e+02
151             	3.70935404e+02
152             	3.70905301e+02
153             	3.70924249e+02
154             	3.70961771e+02
155             	3.70954077e+02
156             	3.70913595e+02
157             	3.70796963e+02
158             	3.70675226e+02
159             	3.70650364e+02
160             	3.70659586e+02
161             	3.70657650e+02
162             	3.70653323e+02
163             	3.70616477e+02
164             	3.70605462e+02
165             	3.70683329e+02
166             	3.70795995e+02
167             	3.70855863e+02
168             	3.70910215e+02
169             	3.70855648e+02
170             	3.70798242e+02
171             	3.70797321e+02
172             	3.70813614e+02
173             	3.70821343e+02
174             	3.70819679e+02
175             	3.70801153e+02
176             	3.70772167e+02
177             	3.70863107e+02
178             	3.71003548e+02
179             	3.71081284e+02
180             	3.71145351e+02
181             	3.71088302e+02
182             	3.71000136e+02
183             	3.70887136e+02
184             	3.70861683e+02
185             	3.70798769e+02
186             	3.70745694e+02
187             	3.70669592e+02
188             	3.70605120e+02
189             	3.70572978e+02
190             	3.70647430e+02
191             	3.70694984e+02
192             	3.70749525e+02
193             	3.70751053e+02
194             	3.70701694e+02
195             	3.70707021e+02
196             	3.70777738e+02
197             	3.70840003e+02
198             	3.70886697e+02
199             	3.70896947e+02
200             	3.70912531e+02
201             	3.70983766e+02
202             	3.71096100e+02
203             	3.71199470e+02
204             	3.71283393e+02
205             	3.71340051e+02
206             	3.71385294e+02
207             	3.71395924e+02
208             	3.71453964e+02
209             	3.71489156e+02
210             	3.71526819e+02
211             	3.71530646e+02
212             	3.71533849e+02
213             	3.71532286e+02
214             	3.71614230e+02
215             	3.71745117e+02
216             	3.71949692e+02
217             	3.72167241e+02
218             	3.72278957e+02
219             	3.72394434e+02
220             	3.72562597e+02
221             	3.72737867e+02
222             	3.72907523e+02
223             	3.73074261e+02
224             	3.73237977e+02
225             	3.73415499e+02
226             	3.73644335e+02
227             	3.73914352e+02
228             	3.74206616e+02
229             	3.74506641e+02
230             	3.74799458e+02
231             	3.75130862e+02
232             	3.75419779e+02
233             	3.75673896e+02
234             	3.75892523e+02
235             	3.76095735e+02
236             	3.76294676e+02
237             	3.76557886e+02
238             	3.76825214e+02
239             	3.77098183e+02
240             	3.77367513e+02
241             	3.77624816e+02
242             	3.77874970e+02
243             	3.78139379e+02
244             	3.78449032e+02
245             	3.78784074e+02
246             	3.79099980e+02
247             	3.79382730e+02
248             	3.79631981e+02
249             	3.79845694e+02
250             	3.80090305e+02
251             	3.80349101e+02
252             	3.80594211e+02
253             	3.80814092e+02
254             	3.81033594e+02
255             	3.81288021e+02
256             	3.81587109e+02
257             	3.81921462e+02
258             	3.82246449e+02
259             	3.82530964e+02
260             	3.82767917e+02
261             	3.82922990e+02
262             	3.83121067e+02
263             	3.83292114e+02
264             	3.83423638e+02
265             	3.83496217e+02
266             	3.83565306e+02
267             	3.83669375e+02
268             	3.83840594e+02
269             	3.84057392e+02
270             	3.84247921e+02
271             	3.84372577e+02
272             	3.84505800e+02
273             	3.84618288e+02
274             	3.84787244e+02
275             	3.84922269e+02
276             	3.85008461e+02
277             	3.85027926e+02
278             	3.85038513e+02
279             	3.85056672e+02
280             	3.85136729e+02
281             	3.85291916e+02
282             	3.85421152e+02
283             	3.85507197e+02
284             	3.85550691e+02
285             	3.85550345e+02
286             	3.85613388e+02
287             	3.85660889e+02
288             	3.85657541e+02
289             	3.85585505e+02
290             	3.85486204e+02
291             	3.85395010e+02
292             	3.85375463e+02
293             	3.85448168e+02
294             	3.85488989e+02
295             	3.85496604e+02
296             	3.85439911e+02
297             	3.85362341e+02
298             	3.85322578e+02
299             	3.85289616e+02
300             	3.85185883e+02
301             	3.85012463e+02
302             	3.84805593e+02
303             	3.84602633e+02
304             	3.84474321e+02
305             	3.84418964e+02
306             	3.84372534e+02
307             	3.84295583e+02
308             	3.84139640e+02
309             	3.83948670e+02
310             	3.83797374e+02
311             	3.83697392e+02
312             	3.83540236e+02
313             	3.83327483e+02
314             	3.83083521e+02
315             	3.82859771e+02
316             	3.82673076e+02
317             	3.82582798e+02
318             	3.82528237e+02
319             	3.82377093e+02
320             	3.82185988e+02
321             	3.81950667e+02
322             	3.81766866e+02
323             	3.81638538e+02
324             	3.81531268e+02
325             	3.81402415e+02
326             	3.81248126e+02
327             	3.81085893e+02
328             	3.80970751e+02
329             	3.80944378e+02
330             	3.80913303e+02
331             	3.80835565e+02
332             	3.80691818e+02
333             	3.80533372e+02
334             	3.80333387e+02
335             	3.80284649e+02
336             	3.80176208e+02
337             	3.80036867e+02
338             	3.79858670e+02
339             	3.79657303e+02
340             	3.79491774e+02
341             	3.79429171e+02
342             	3.79453262e+02
343             	3.79430857e+02
344             	3.79344228e+02
345             	3.79200753e+02
346             	3.79026609e+02
347             	3.78932156e+02
348             	3.78868286e+02
349             	3.78787030e+02
350             	3.78662430e+02
351             	3.78528841e+02
352             	3.78381415e+02
353             	3.78241369e+02
354             	3.78191432e+02
355             	3.78113840e+02
356             	3.77998122e+02
357             	3.77802451e+02
358             	3.77605970e+02
359             	3.77435361e+02
360             	3.77375503e+02
361             	3.77261940e+02
362             	3.77139117e+02
363             	3.76962273e+02
364             	3.76782849e+02
365             	3.76653987e+02
366             	3.76607260e+02
367             	3.76556240e+02
368             	3.76446595e+02
369             	3.76275804e+02
370             	3.76094354e+02
371             	3.75893557e+02
372             	3.75806246e+02
373             	3.75718205e+02
374             	3.75612115e+02
375             	3.75481541e+02
376             	3.75319042e+02
377             	3.75190015e+02
378             	3.75174824e+02
379             	3.75121076e+02
380             	3.75060588e+02
381             	3.74971835e+02
382             	3.74876185e+02
383             	3.74847348e+02
384             	3.74899519e+02
385             	3.74907920e+02
386             	3.74898480e+02
387             	3.74827255e+02
388             	3.74736714e+02
389             	3.74683035e+02
390             	3.74681866e+02
391             	3.74725004e+02
392             	3.74718744e+02
393             	3.74708109e+02
394             	3.74674154e+02
395             	3.74673781e+02
396             	3.74734478e+02
397             	3.74757522e+02
398             	3.74765145e+02
399             	3.74751255e+02
400             	3.74727156e+02
401             	3.74740449e+02
402             	3.74785417e+02
403             	3.74910093e+02
404             	3.74994779e+02
405             	3.75013951e+02
406             	3.75006229e+02
407             	3.74986455e+02
408             	3.75041024e+02
409             	3.75074812e+02
410             	3.75087776e+02
411             	3.75057546e+02
412             	3.75019264e+02
413             	3.74999194e+02
414             	3.75078687e+02
415             	3.75176811e+02
416             	3.75245852e+02
417             	3.75232842e+02
418             	3.75179271e+02
419             	3.75136626e+02
420             	3.75206095e+02
421             	3.75222748e+02
422             	3.75213233e+02
423             	3.75136258e+02
424             	3.75061867e+02
425             	3.75019175e+02
426             	3.75034775e+02
427             	3.75150201e+02
428             	3.75238209e+02
429             	3.75268309e+02
430             	3.75301819e+02
431             	3.75254969e+02
432             	3.75270564e+02
433             	3.75320535e+02
434             	3.75343315e+02
435             	3.75360697e+02
436             	3.75345992e+02
437             	3.75316275e+02
438             	3.75346450e+02
439             	3.75414458e+02
440             	3.75450122e+02
441             	3.75418828e+02
442             	3.75329826e+02
443             	3.75223759e+02
444             	3.75125106e+02
445             	3.75140322e+02
446             	3.75094770e+02
447             	3.75020208e+02
448             	3.74910109e+02
449             	3.74799843e+02
450             	3.74721668e+02
451             	3.74703514e+02
452             	3.74706406e+02
453             	3.74626120e+02
454             	3.74517246e+02
455             	3.74416450e+02
456             	3.74332454e+02
457             	3.74329753e+02
458             	3.74308984e+02
459             	3.74258665e+02
460             	3.74155509e+02
461             	3.74022240e+02
462             	3.73921933e+02
463             	3.73887206e+02
464             	3.73888969e+02
465             	3.73823361e+02
466             	3.73729194e+02
467             	3.73561948e+02
468             	3.73422313e+02
469             	3.73346527e+02
470             	3.73310707e+02
471             	3.73252009e+02
472             	3.73189294e+02
473             	3.73084813e+02
474             	3.72973462e+02
475             	3.72936667e+02
476             	3.72953781e+02
477             	3.72952985e+02
478             	3.72940978e+02
479             	3.72907111e+02
480             	3.72809029e+02
481             	3.72703633e+02
482             	3.72735616e+02
483             	3.72700275e+02
484             	3.72645520e+02
485             	3.72576774e+02
486             	3.72490140e+02
487             	3.72441591e+02
488             	3.72472698e+02
489             	3.72601001e+02
490             	3.72639662e+02
491             	3.72547644e+02
492             	3.72312075e+02
493             	3.72090491e+02
494             	3.71974615e+02
495             	3.71908177e+02
496             	3.71859588e+02
497             	3.71812103e+02
498             	3.71763953e+02
499             	3.71761814e+02
500             	3.71832422e+02
501             	3.71956010e+02
502             	3.72075740e+02
503             	3.72197545e+02
504             	3.72244011e+02
505             	3.72296866e+02
506             	3.72335966e+02
507             	3.72392411e+02
508             	3.72460031e+02
509             	3.72525009e+02
510             	3.72593016e+02
511             	3.72659511e+02
512             	3.72736597e+02
513             	3.72882833e+02
514             	3.73066630e+02
515             	3.73265786e+02
516             	3.73419239e+02
517             	3.73535816e+02
518             	3.73609670e+02
519             	3.73694385e+02
520             	3.73827813e+02
521             	3.73956089e+02
522             	3.74090897e+02
523             	3.74210672e+02
524             	3.74324990e+02
525             	3.74447674e+02
526             	3.74578692e+02
527             	3.74767490e+02
528             	3.74976055e+02
529             	3.75146641e+02
530             	3.75267335e+02
531             	3.75348606e+02
532             	3.75425786e+02
533             	3.75548142e+02
534             	3.75701844e+02
535             	3.75861035e+02
536             	3.75992260e+02
537             	3.76111822e+02
538             	3.76220125e+02
539             	3.76350903e+02
540             	3.76536306e+02
541             	3.76788039e+02
542             	3.77017180e+02
543             	3.77210783e+02
544             	3.77345716e+02
545             	3.77487143e+02
546             	3.77658260e+02
547             	3.77872660e+02
548             	3.78055772e+02
549             	3.78206689e+02
550             	3.78331835e+02
551             	3.78456336e+02
552             	3.78630845e+02
553             	3.78843348e+02
554             	3.79017697e+02
555             	3.79158058e+02
556             	3.79283161e+02
557             	3.79387523e+02
558             	3.79516247e+02
559             	3.79702723e+02
560             	3.79857288e+02
561             	3.79974925e+02
562             	3.80038792e+02
563             	3.80080570e+02
564             	3.80132505e+02
565             	3.80234539e+02
566             	3.80363856e+02
567             	3.80487560e+02
568             	3.80576161e+02
569             	3.80603030e+02
570             	3.80628350e+02
571             	3.80702087e+02
572             	3.80802953e+02
573             	3.80878878e+02
574             	3.80928187e+02
575             	3.80949150e+02
576             	3.80986840e+02
577             	3.81103498e+02
578             	3.81275196e+02
579             	3.81412317e+02
580             	3.81509422e+02
581             	3.81539841e+02
582             	3.81529336e+02
583             	3.81599542e+02
584             	3.81651182e+02
585             	3.81654153e+02
586             	3.81584248e+02
587             	3.81501803e+02
588             	3.81447371e+02
589             	3.81452033e+02
590             	3.81523362e+02
591             	3.81545405e+02
592             	3.81526975e+02
593             	3.81476110e+02
594             	3.81406685e+02
595             	3.81404441e+02
596             	3.81380496e+02
597             	3.81311656e+02
598             	3.81198651e+02
599             	3.81048404e+02
600             	3.80937288e+02
601             	3.80880181e+02
602             	3.80906267e+02
603             	3.80874692e+02
604             	3.80778094e+02
605             	3.80650197e+02
606             	3.80522400e+02
607             	3.80452958e+02
608             	3.80389473e+02
609             	3.80277169e+02
610             	3.80130983e+02
611             	3.79934487e+02
612             	3.79717906e+02
613             	3.79598910e+02
614             	3.79533930e+02
615             	3.79449462e+02
616             	3.79369421e+02
617             	3.79210349e+02
618             	3.79050177e+02
619             	3.78893277e+02
620             	3.78842449e+02
621             	3.78737462e+02
