# Region        : cellZone pcb
# Cells         : 576
# Volume        : 1.12035574e+00
# Time          	volAverage(T)
1               	3.00004734e+02
2               	3.00014071e+02
3               	3.00027712e+02
4               	3.00045879e+02
5               	3.00065211e+02
6               	3.00086844e+02
7               	3.00111181e+02
8               	3.00137773e+02
9               	3.00168255e+02
10              	3.00199583e+02
11              	3.00231957e+02
12              	3.00266980e+02
13              	3.00303801e+02
14              	3.00344031e+02
15              	3.00387732e+02
16              	3.00432284e+02
17              	3.00475270e+02
18              	3.00519697e+02
19              	3.00565437e+02
20              	3.00611484e+02
21              	3.00657281e+02
22              	3.00701533e+02
23              	3.00750110e+02
24              	3.00802070e+02
25              	3.00855106e+02
26              	3.00904692e+02
27              	3.00952375e+02
28              	3.01000017e+02
29              	3.01049272e+02
30              	3.01099206e+02
31              	3.01149623e+02
32              	3.01200744e+02
33              	3.01254195e+02
34              	3.01308531e+02
35              	3.01358797e+02
36              	3.01408983e+02
37              	3.01458627e+02
38              	3.01506441e+02
39              	3.01555712e+02
40              	3.01604120e+02
41              	3.01654852e+02
42              	3.01706869e+02
43              	3.01757984e+02
44              	3.01809819e+02
45              	3.01860743e+02
46              	3.01916330e+02
47              	3.01968715e+02
48              	3.02016039e+02
49              	3.02064596e+02
50              	3.02113873e+02
51              	3.02160765e+02
52              	3.02206097e+02
53              	3.02251229e+02
54              	3.02296563e+02
55              	3.02341797e+02
56              	3.02384294e+02
57              	3.02429012e+02
58              	3.02477606e+02
59              	3.02526630e+02
60              	3.02578991e+02
61              	3.02628929e+02
62              	3.02673661e+02
63              	3.02718311e+02
64              	3.02767572e+02
65              	3.02817300e+02
66              	3.02864308e+02
67              	3.02912384e+02
68              	3.02960561e+02
69              	3.03006577e+02
70              	3.03053506e+02
71              	3.03095963e+02
72              	3.03134228e+02
73              	3.03175183e+02
74              	3.03217213e+02
75              	3.03261163e+02
76              	3.03303817e+02
77              	3.03346564e+02
78              	3.03391172e+02
79              	3.03435853e+02
80              	3.03478920e+02
81              	3.03520971e+02
82              	3.03562304e+02
83              	3.03606396e+02
84              	3.03651302e+02
85              	3.03694580e+02
86              	3.03737243e+02
87              	3.03779764e+02
88              	3.03821785e+02
89              	3.03863752e+02
90              	3.03905651e+02
91              	3.03943892e+02
92              	3.03981488e+02
93              	3.04016034e+02
94              	3.04052909e+02
95              	3.04090943e+02
96              	3.04126761e+02
97              	3.04162686e+02
98              	3.04200172e+02
99              	3.04236990e+02
100             	3.04271500e+02
101             	3.04306633e+02
102             	3.04343706e+02
103             	3.04383358e+02
104             	3.04422413e+02
105             	3.04462320e+02
106             	3.04502654e+02
107             	3.04542384e+02
108             	3.04579562e+02
109             	3.04616131e+02
110             	3.04651244e+02
111             	3.04682909e+02
112             	3.04713441e+02
113             	3.04744553e+02
114             	3.04776919e+02
115             	3.04810100e+02
116             	3.04842667e+02
117             	3.04875744e+02
118             	3.04909383e+02
119             	3.04942334e+02
120             	3.04976781e+02
121             	3.05010612e+02
122             	3.05043681e+02
123             	3.05074243e+02
124             	3.05104321e+02
125             	3.05135397e+02
126             	3.05167077e+02
127             	3.05199849e+02
128             	3.05232980e+02
129             	3.05266191e+02
130             	3.05301007e+02
131             	3.05334763e+02
132             	3.05365392e+02
133             	3.05394027e+02
134             	3.05421045e+02
135             	3.05448148e+02
136             	3.05475784e+02
137             	3.05503528e+02
138             	3.05531764e+02
139             	3.05560991e+02
140             	3.05589307e+02
141             	3.05618877e+02
142             	3.05648520e+02
143             	3.05678045e+02
144             	3.05708000e+02
145             	3.05738161e+02
146             	3.05768208e+02
147             	3.05797584e+02
148             	3.05825300e+02
149             	3.05851578e+02
150             	3.05877463e+02
151             	3.05903894e+02
152             	3.05929421e+02
153             	3.05954009e+02
154             	3.05978613e+02
155             	3.06003095e+02
156             	3.06027564e+02
157             	3.06052152e+02
158             	3.06076840e+02
159             	3.06101362e+02
160             	3.06125369e+02
161             	3.06149532e+02
162             	3.06174097e+02
163             	3.06199106e+02
164             	3.06224449e+02
165             	3.06249415e+02
166             	3.06274369e+02
167             	3.06300533e+02
168             	3.06323713e+02
169             	3.06344024e+02
170             	3.06363806e+02
171             	3.06383615e+02
172             	3.06403924e+02
173             	3.06424510e+02
174             	3.06445583e+02
175             	3.06467229e+02
176             	3.06490166e+02
177             	3.06513440e+02
178             	3.06537214e+02
179             	3.06559404e+02
180             	3.06579185e+02
181             	3.06597244e+02
182             	3.06615467e+02
183             	3.06634229e+02
184             	3.06653604e+02
185             	3.06673934e+02
186             	3.06694638e+02
187             	3.06715711e+02
188             	3.06736763e+02
189             	3.06758027e+02
190             	3.06777909e+02
191             	3.06796185e+02
192             	3.06813000e+02
193             	3.06829153e+02
194             	3.06845434e+02
195             	3.06862024e+02
196             	3.06878530e+02
197             	3.06895544e+02
198             	3.06912878e+02
199             	3.06929490e+02
200             	3.06945225e+02
201             	3.06960616e+02
202             	3.06975728e+02
203             	3.06990827e+02
204             	3.07005850e+02
205             	3.07020618e+02
206             	3.07035374e+02
207             	3.07049964e+02
208             	3.07064435e+02
209             	3.07078974e+02
210             	3.07093508e+02
211             	3.07108061e+02
212             	3.07122613e+02
213             	3.07137209e+02
214             	3.07151987e+02
215             	3.07166561e+02
216             	3.07181009e+02
217             	3.07195365e+02
218             	3.07209710e+02
219             	3.07224042e+02
220             	3.07238013e+02
221             	3.07251876e+02
222             	3.07265497e+02
223             	3.07278957e+02
224             	3.07292201e+02
225             	3.07305250e+02
226             	3.07318008e+02
227             	3.07330619e+02
228             	3.07342908e+02
229             	3.07354998e+02
230             	3.07366956e+02
231             	3.07378813e+02
232             	3.07390394e+02
233             	3.07401960e+02
234             	3.07413355e+02
235             	3.07424423e+02
236             	3.07435474e+02
237             	3.07446403e+02
238             	3.07457160e+02
239             	3.07467858e+02
240             	3.07478562e+02
241             	3.07489268e+02
242             	3.07499876e+02
243             	3.07510428e+02
244             	3.07520881e+02
245             	3.07531205e+02
246             	3.07541488e+02
247             	3.07551546e+02
248             	3.07561654e+02
249             	3.07571655e+02
250             	3.07581408e+02
251             	3.07591123e+02
252             	3.07600706e+02
253             	3.07610232e+02
254             	3.07619734e+02
255             	3.07629187e+02
256             	3.07638471e+02
257             	3.07647897e+02
258             	3.07657245e+02
259             	3.07666422e+02
260             	3.07675511e+02
261             	3.07684561e+02
262             	3.07693568e+02
263             	3.07702423e+02
264             	3.07711202e+02
265             	3.07719745e+02
266             	3.07728156e+02
267             	3.07736470e+02
268             	3.07744689e+02
269             	3.07752679e+02
270             	3.07760488e+02
271             	3.07768301e+02
272             	3.07775985e+02
273             	3.07783507e+02
274             	3.07790886e+02
275             	3.07798168e+02
276             	3.07805331e+02
277             	3.07812422e+02
278             	3.07819503e+02
279             	3.07826529e+02
280             	3.07833585e+02
281             	3.07840642e+02
282             	3.07847686e+02
283             	3.07854643e+02
284             	3.07861601e+02
285             	3.07868549e+02
286             	3.07875444e+02
287             	3.07882257e+02
288             	3.07889070e+02
289             	3.07895789e+02
290             	3.07902482e+02
291             	3.07909114e+02
292             	3.07915617e+02
293             	3.07922029e+02
294             	3.07928366e+02
295             	3.07934531e+02
296             	3.07940612e+02
297             	3.07946586e+02
298             	3.07952491e+02
299             	3.07958252e+02
300             	3.07963914e+02
301             	3.07969497e+02
302             	3.07974990e+02
303             	3.07980375e+02
304             	3.07985679e+02
305             	3.07990876e+02
306             	3.07996045e+02
307             	3.08001164e+02
308             	3.08006213e+02
309             	3.08011201e+02
310             	3.08016146e+02
311             	3.08021050e+02
312             	3.08025911e+02
313             	3.08030750e+02
314             	3.08035576e+02
315             	3.08040390e+02
316             	3.08045160e+02
317             	3.08049905e+02
318             	3.08054625e+02
319             	3.08059307e+02
320             	3.08063923e+02
321             	3.08068502e+02
322             	3.08073040e+02
323             	3.08077531e+02
324             	3.08081954e+02
325             	3.08086332e+02
326             	3.08090657e+02
327             	3.08094939e+02
328             	3.08099159e+02
329             	3.08103337e+02
330             	3.08107440e+02
331             	3.08111443e+02
332             	3.08115423e+02
333             	3.08119376e+02
334             	3.08123260e+02
335             	3.08127086e+02
336             	3.08130839e+02
337             	3.08134546e+02
338             	3.08138180e+02
339             	3.08141787e+02
340             	3.08145333e+02
341             	3.08148824e+02
342             	3.08152255e+02
343             	3.08155646e+02
344             	3.08158995e+02
345             	3.08162321e+02
346             	3.08165622e+02
347             	3.08168892e+02
348             	3.08172131e+02
349             	3.08175344e+02
350             	3.08178524e+02
351             	3.08181667e+02
352             	3.08184789e+02
353             	3.08187887e+02
354             	3.08190948e+02
355             	3.08193989e+02
356             	3.08196999e+02
357             	3.08199988e+02
358             	3.08202932e+02
359             	3.08205849e+02
360             	3.08208728e+02
361             	3.08211572e+02
362             	3.08214373e+02
363             	3.08217127e+02
364             	3.08219831e+02
365             	3.08222493e+02
366             	3.08225125e+02
367             	3.08227710e+02
368             	3.08230274e+02
369             	3.08232788e+02
370             	3.08235254e+02
371             	3.08237684e+02
372             	3.08240081e+02
373             	3.08242456e+02
374             	3.08244813e+02
375             	3.08247150e+02
376             	3.08249466e+02
377             	3.08251764e+02
378             	3.08254051e+02
379             	3.08256323e+02
380             	3.08258569e+02
381             	3.08260787e+02
382             	3.08263000e+02
383             	3.08265203e+02
384             	3.08267382e+02
385             	3.08269538e+02
386             	3.08271664e+02
387             	3.08273768e+02
388             	3.08275847e+02
389             	3.08277907e+02
390             	3.08279934e+02
391             	3.08281928e+02
392             	3.08283901e+02
393             	3.08285834e+02
394             	3.08287736e+02
395             	3.08289605e+02
396             	3.08291446e+02
397             	3.08293264e+02
398             	3.08295057e+02
399             	3.08296838e+02
400             	3.08298603e+02
401             	3.08300353e+02
402             	3.08302091e+02
403             	3.08303815e+02
404             	3.08305504e+02
405             	3.08307192e+02
406             	3.08308868e+02
407             	3.08310520e+02
408             	3.08312150e+02
409             	3.08313766e+02
410             	3.08315359e+02
411             	3.08316930e+02
412             	3.08318476e+02
413             	3.08320003e+02
414             	3.08321524e+02
415             	3.08323018e+02
416             	3.08324491e+02
417             	3.08325943e+02
418             	3.08327373e+02
419             	3.08328786e+02
420             	3.08330180e+02
421             	3.08331559e+02
422             	3.08332928e+02
423             	3.08334277e+02
424             	3.08335620e+02
425             	3.08336955e+02
426             	3.08338279e+02
427             	3.08339594e+02
428             	3.08340886e+02
429             	3.08342172e+02
430             	3.08343446e+02
431             	3.08344704e+02
432             	3.08345944e+02
433             	3.08347167e+02
434             	3.08348373e+02
435             	3.08349560e+02
436             	3.08350728e+02
437             	3.08351878e+02
438             	3.08353010e+02
439             	3.08354128e+02
440             	3.08355239e+02
441             	3.08356343e+02
442             	3.08357424e+02
443             	3.08358488e+02
444             	3.08359539e+02
445             	3.08360582e+02
446             	3.08361620e+02
447             	3.08362654e+02
448             	3.08363678e+02
449             	3.08364702e+02
450             	3.08365724e+02
451             	3.08366733e+02
452             	3.08367743e+02
453             	3.08368737e+02
454             	3.08369725e+02
455             	3.08370706e+02
456             	3.08371672e+02
457             	3.08372624e+02
458             	3.08373562e+02
459             	3.08374487e+02
460             	3.08375384e+02
461             	3.08376270e+02
462             	3.08377145e+02
463             	3.08377997e+02
464             	3.08378834e+02
465             	3.08379659e+02
466             	3.08380476e+02
467             	3.08381290e+02
468             	3.08382077e+02
469             	3.08382856e+02
470             	3.08383635e+02
471             	3.08384417e+02
472             	3.08385184e+02
473             	3.08385930e+02
474             	3.08386680e+02
475             	3.08387424e+02
476             	3.08388155e+02
477             	3.08388864e+02
478             	3.08389557e+02
479             	3.08390239e+02
480             	3.08390917e+02
481             	3.08391569e+02
482             	3.08392223e+02
483             	3.08392907e+02
484             	3.08393597e+02
485             	3.08394272e+02
486             	3.08394926e+02
487             	3.08395569e+02
488             	3.08396216e+02
489             	3.08396862e+02
490             	3.08397462e+02
491             	3.08398033e+02
492             	3.08398601e+02
493             	3.08399175e+02
494             	3.08399713e+02
495             	3.08400256e+02
496             	3.08400823e+02
497             	3.08401396e+02
498             	3.08401982e+02
499             	3.08402562e+02
500             	3.08403125e+02
501             	3.08403694e+02
502             	3.08404243e+02
503             	3.08404763e+02
504             	3.08405246e+02
505             	3.08405724e+02
506             	3.08406209e+02
507             	3.08406666e+02
508             	3.08407130e+02
509             	3.08407609e+02
510             	3.08408097e+02
511             	3.08408594e+02
512             	3.08409086e+02
513             	3.08409591e+02
514             	3.08410131e+02
515             	3.08410626e+02
516             	3.08411049e+02
517             	3.08411438e+02
518             	3.08411841e+02
519             	3.08412236e+02
520             	3.08412584e+02
521             	3.08412962e+02
522             	3.08413391e+02
523             	3.08413836e+02
524             	3.08414281e+02
525             	3.08414708e+02
526             	3.08415118e+02
527             	3.08415548e+02
528             	3.08415969e+02
529             	3.08416367e+02
530             	3.08416702e+02
531             	3.08417018e+02
532             	3.08417346e+02
533             	3.08417627e+02
534             	3.08417872e+02
535             	3.08418216e+02
536             	3.08418600e+02
537             	3.08418989e+02
538             	3.08419386e+02
539             	3.08419777e+02
540             	3.08420229e+02
541             	3.08420618e+02
542             	3.08420900e+02
543             	3.08421137e+02
544             	3.08421369e+02
545             	3.08421626e+02
546             	3.08421916e+02
547             	3.08422207e+02
548             	3.08422453e+02
549             	3.08422751e+02
550             	3.08423077e+02
551             	3.08423415e+02
552             	3.08423739e+02
553             	3.08424062e+02
554             	3.08424450e+02
555             	3.08424778e+02
556             	3.08425012e+02
557             	3.08425209e+02
558             	3.08425410e+02
559             	3.08425616e+02
560             	3.08425859e+02
561             	3.08426076e+02
562             	3.08426277e+02
563             	3.08426506e+02
564             	3.08426810e+02
565             	3.08427135e+02
566             	3.08427430e+02
567             	3.08427743e+02
568             	3.08428120e+02
569             	3.08428364e+02
570             	3.08428584e+02
571             	3.08428735e+02
572             	3.08428869e+02
573             	3.08429022e+02
574             	3.08429214e+02
575             	3.08429411e+02
576             	3.08429621e+02
577             	3.08429820e+02
578             	3.08430084e+02
579             	3.08430390e+02
580             	3.08430695e+02
581             	3.08430962e+02
582             	3.08431217e+02
583             	3.08431530e+02
584             	3.08431854e+02
585             	3.08432028e+02
586             	3.08432147e+02
587             	3.08432263e+02
588             	3.08432404e+02
589             	3.08432496e+02
590             	3.08432541e+02
591             	3.08432710e+02
592             	3.08432964e+02
593             	3.08433260e+02
594             	3.08433555e+02
595             	3.08433831e+02
596             	3.08434050e+02
597             	3.08434288e+02
598             	3.08434417e+02
599             	3.08434589e+02
600             	3.08434645e+02
601             	3.08434657e+02
602             	3.08434705e+02
603             	3.08434809e+02
604             	3.08434958e+02
605             	3.08435138e+02
606             	3.08435244e+02
607             	3.08435306e+02
608             	3.08435506e+02
609             	3.08435768e+02
610             	3.08436023e+02
611             	3.08436231e+02
612             	3.08436422e+02
613             	3.08436720e+02
614             	3.08436884e+02
615             	3.08437001e+02
616             	3.08437090e+02
617             	3.08437119e+02
618             	3.08437153e+02
619             	3.08437214e+02
620             	3.08437315e+02
621             	3.08437368e+02
