# Region        : cellZone component_4
# Cells         : 146
# Volume        : 2.80093787e-01
# Time          	volAverage(T)
1               	3.00223013e+02
2               	3.00445552e+02
3               	3.00657906e+02
4               	3.00863505e+02
5               	3.01067163e+02
6               	3.01268994e+02
7               	3.01469559e+02
8               	3.01669730e+02
9               	3.01869544e+02
10              	3.02068318e+02
11              	3.02265474e+02
12              	3.02460413e+02
13              	3.02653793e+02
14              	3.02845110e+02
15              	3.03034040e+02
16              	3.03220868e+02
17              	3.03406360e+02
18              	3.03591106e+02
19              	3.03774311e+02
20              	3.03956049e+02
21              	3.04136607e+02
22              	3.04316683e+02
23              	3.04495260e+02
24              	3.04672333e+02
25              	3.04846999e+02
26              	3.05017388e+02
27              	3.05187866e+02
28              	3.05354929e+02
29              	3.05521359e+02
30              	3.05686561e+02
31              	3.05851993e+02
32              	3.06016112e+02
33              	3.06175030e+02
34              	3.06327606e+02
35              	3.06478307e+02
36              	3.06632843e+02
37              	3.06785580e+02
38              	3.06937687e+02
39              	3.07088575e+02
40              	3.07237013e+02
41              	3.07384129e+02
42              	3.07530713e+02
43              	3.07675885e+02
44              	3.07818260e+02
45              	3.07959527e+02
46              	3.08102562e+02
47              	3.08245883e+02
48              	3.08389384e+02
49              	3.08534929e+02
50              	3.08677652e+02
51              	3.08817872e+02
52              	3.08959588e+02
53              	3.09100425e+02
54              	3.09239028e+02
55              	3.09374682e+02
56              	3.09504129e+02
57              	3.09632280e+02
58              	3.09757089e+02
59              	3.09885213e+02
60              	3.10012156e+02
61              	3.10138147e+02
62              	3.10265973e+02
63              	3.10396916e+02
64              	3.10526329e+02
65              	3.10657497e+02
66              	3.10786957e+02
67              	3.10914413e+02
68              	3.11040259e+02
69              	3.11166248e+02
70              	3.11292290e+02
71              	3.11415441e+02
72              	3.11538472e+02
73              	3.11659006e+02
74              	3.11780399e+02
75              	3.11900153e+02
76              	3.12017445e+02
77              	3.12133405e+02
78              	3.12248805e+02
79              	3.12364169e+02
80              	3.12477254e+02
81              	3.12593659e+02
82              	3.12711077e+02
83              	3.12827069e+02
84              	3.12939721e+02
85              	3.13052262e+02
86              	3.13161368e+02
87              	3.13268486e+02
88              	3.13372907e+02
89              	3.13474738e+02
90              	3.13569651e+02
91              	3.13667425e+02
92              	3.13764247e+02
93              	3.13861270e+02
94              	3.13956527e+02
95              	3.14053671e+02
96              	3.14153946e+02
97              	3.14253859e+02
98              	3.14356540e+02
99              	3.14459118e+02
100             	3.14559867e+02
101             	3.14656574e+02
102             	3.14753773e+02
103             	3.14850250e+02
104             	3.14946354e+02
105             	3.15040708e+02
106             	3.15134654e+02
107             	3.15227912e+02
108             	3.15322212e+02
109             	3.15415827e+02
110             	3.15509643e+02
111             	3.15604759e+02
112             	3.15698905e+02
113             	3.15792574e+02
114             	3.15886126e+02
115             	3.15978051e+02
116             	3.16068330e+02
117             	3.16157270e+02
118             	3.16248827e+02
119             	3.16337793e+02
120             	3.16426087e+02
121             	3.16514319e+02
122             	3.16602929e+02
123             	3.16690647e+02
124             	3.16776133e+02
125             	3.16861640e+02
126             	3.16945887e+02
127             	3.17029510e+02
128             	3.17112431e+02
129             	3.17194670e+02
130             	3.17277196e+02
131             	3.17357769e+02
132             	3.17440886e+02
133             	3.17522401e+02
134             	3.17606519e+02
135             	3.17689783e+02
136             	3.17770853e+02
137             	3.17853123e+02
138             	3.17935325e+02
139             	3.18015194e+02
140             	3.18094680e+02
141             	3.18172285e+02
142             	3.18249006e+02
143             	3.18324605e+02
144             	3.18399411e+02
145             	3.18473870e+02
146             	3.18547353e+02
147             	3.18620435e+02
148             	3.18690720e+02
149             	3.18762711e+02
150             	3.18835541e+02
151             	3.18908805e+02
152             	3.18979094e+02
153             	3.19050441e+02
154             	3.19122179e+02
155             	3.19191987e+02
156             	3.19262063e+02
157             	3.19331630e+02
158             	3.19400270e+02
159             	3.19468038e+02
160             	3.19534894e+02
161             	3.19601394e+02
162             	3.19667454e+02
163             	3.19732522e+02
164             	3.19797212e+02
165             	3.19862222e+02
166             	3.19927286e+02
167             	3.19991429e+02
168             	3.20055356e+02
169             	3.20118680e+02
170             	3.20182392e+02
171             	3.20244853e+02
172             	3.20304200e+02
173             	3.20364224e+02
174             	3.20424745e+02
175             	3.20485297e+02
176             	3.20545673e+02
177             	3.20605575e+02
178             	3.20662143e+02
179             	3.20719122e+02
180             	3.20775506e+02
181             	3.20831725e+02
182             	3.20887348e+02
183             	3.20942165e+02
184             	3.20996522e+02
185             	3.21050157e+02
186             	3.21103421e+02
187             	3.21156227e+02
188             	3.21208681e+02
189             	3.21260596e+02
190             	3.21312449e+02
191             	3.21364114e+02
192             	3.21412512e+02
193             	3.21461562e+02
194             	3.21511254e+02
195             	3.21560976e+02
196             	3.21610333e+02
197             	3.21659218e+02
198             	3.21707772e+02
199             	3.21755592e+02
200             	3.21802887e+02
201             	3.21850098e+02
202             	3.21897169e+02
203             	3.21943700e+02
204             	3.21989920e+02
205             	3.22035391e+02
206             	3.22080375e+02
207             	3.22124787e+02
208             	3.22165872e+02
209             	3.22207544e+02
210             	3.22249953e+02
211             	3.22292412e+02
212             	3.22335019e+02
213             	3.22379209e+02
214             	3.22423127e+02
215             	3.22466666e+02
216             	3.22507555e+02
217             	3.22548189e+02
218             	3.22590103e+02
219             	3.22631308e+02
220             	3.22672200e+02
221             	3.22712647e+02
222             	3.22752723e+02
223             	3.22792193e+02
224             	3.22831268e+02
225             	3.22869824e+02
226             	3.22908019e+02
227             	3.22945826e+02
228             	3.22983734e+02
229             	3.23020629e+02
230             	3.23057134e+02
231             	3.23093270e+02
232             	3.23129113e+02
233             	3.23164635e+02
234             	3.23199878e+02
235             	3.23234794e+02
236             	3.23269541e+02
237             	3.23303938e+02
238             	3.23337883e+02
239             	3.23371241e+02
240             	3.23404135e+02
241             	3.23436577e+02
242             	3.23468679e+02
243             	3.23500501e+02
244             	3.23532089e+02
245             	3.23563507e+02
246             	3.23594739e+02
247             	3.23625655e+02
248             	3.23656540e+02
249             	3.23686849e+02
250             	3.23716847e+02
251             	3.23743116e+02
252             	3.23770062e+02
253             	3.23797819e+02
254             	3.23825894e+02
255             	3.23854085e+02
256             	3.23882244e+02
257             	3.23910167e+02
258             	3.23937928e+02
259             	3.23965424e+02
260             	3.23992573e+02
261             	3.24019340e+02
262             	3.24045680e+02
263             	3.24071547e+02
264             	3.24097080e+02
265             	3.24122204e+02
266             	3.24147026e+02
267             	3.24171539e+02
268             	3.24195842e+02
269             	3.24219876e+02
270             	3.24243634e+02
271             	3.24267070e+02
272             	3.24290381e+02
273             	3.24313497e+02
274             	3.24336432e+02
275             	3.24359120e+02
276             	3.24381590e+02
277             	3.24403806e+02
278             	3.24425807e+02
279             	3.24447712e+02
280             	3.24469347e+02
281             	3.24490888e+02
282             	3.24512218e+02
283             	3.24533340e+02
284             	3.24554363e+02
285             	3.24575282e+02
286             	3.24595890e+02
287             	3.24616151e+02
288             	3.24636024e+02
289             	3.24655541e+02
290             	3.24674785e+02
291             	3.24693727e+02
292             	3.24712326e+02
293             	3.24730776e+02
294             	3.24749086e+02
295             	3.24767199e+02
296             	3.24785116e+02
297             	3.24802810e+02
298             	3.24820323e+02
299             	3.24837629e+02
300             	3.24854765e+02
301             	3.24871704e+02
302             	3.24888481e+02
303             	3.24905063e+02
304             	3.24921498e+02
305             	3.24937763e+02
306             	3.24953850e+02
307             	3.24969727e+02
308             	3.24985442e+02
309             	3.25001035e+02
310             	3.25016491e+02
311             	3.25031759e+02
312             	3.25046866e+02
313             	3.25061853e+02
314             	3.25076752e+02
315             	3.25091415e+02
316             	3.25106076e+02
317             	3.25120390e+02
318             	3.25134504e+02
319             	3.25148409e+02
320             	3.25162128e+02
321             	3.25175648e+02
322             	3.25188889e+02
323             	3.25202004e+02
324             	3.25214974e+02
325             	3.25227786e+02
326             	3.25240442e+02
327             	3.25252939e+02
328             	3.25265291e+02
329             	3.25277457e+02
330             	3.25289521e+02
331             	3.25301467e+02
332             	3.25313291e+02
333             	3.25325005e+02
334             	3.25336619e+02
335             	3.25348134e+02
336             	3.25359566e+02
337             	3.25370863e+02
338             	3.25382056e+02
339             	3.25393127e+02
340             	3.25404094e+02
341             	3.25414943e+02
342             	3.25425684e+02
343             	3.25436365e+02
344             	3.25446900e+02
345             	3.25457295e+02
346             	3.25467566e+02
347             	3.25477707e+02
348             	3.25487700e+02
349             	3.25497599e+02
350             	3.25507397e+02
351             	3.25517078e+02
352             	3.25526633e+02
353             	3.25536066e+02
354             	3.25545389e+02
355             	3.25554610e+02
356             	3.25563717e+02
357             	3.25572702e+02
358             	3.25581581e+02
359             	3.25590353e+02
360             	3.25599029e+02
361             	3.25607604e+02
362             	3.25616090e+02
363             	3.25624482e+02
364             	3.25632785e+02
365             	3.25640980e+02
366             	3.25649096e+02
367             	3.25657121e+02
368             	3.25665065e+02
369             	3.25672913e+02
370             	3.25680674e+02
371             	3.25688345e+02
372             	3.25695939e+02
373             	3.25703449e+02
374             	3.25710879e+02
375             	3.25718227e+02
376             	3.25725500e+02
377             	3.25732704e+02
378             	3.25739832e+02
379             	3.25746883e+02
380             	3.25753850e+02
381             	3.25760730e+02
382             	3.25767525e+02
383             	3.25774269e+02
384             	3.25780944e+02
385             	3.25787548e+02
386             	3.25794082e+02
387             	3.25800547e+02
388             	3.25806955e+02
389             	3.25813287e+02
390             	3.25819528e+02
391             	3.25825684e+02
392             	3.25831777e+02
393             	3.25837798e+02
394             	3.25843742e+02
395             	3.25849618e+02
396             	3.25855416e+02
397             	3.25861141e+02
398             	3.25866789e+02
399             	3.25872396e+02
400             	3.25877938e+02
401             	3.25883431e+02
402             	3.25888867e+02
403             	3.25894259e+02
404             	3.25899584e+02
405             	3.25904866e+02
406             	3.25910085e+02
407             	3.25915249e+02
408             	3.25920357e+02
409             	3.25925422e+02
410             	3.25930439e+02
411             	3.25935407e+02
412             	3.25940322e+02
413             	3.25945186e+02
414             	3.25949994e+02
415             	3.25954752e+02
416             	3.25959455e+02
417             	3.25964108e+02
418             	3.25968706e+02
419             	3.25973259e+02
420             	3.25977758e+02
421             	3.25982207e+02
422             	3.25986598e+02
423             	3.25990941e+02
424             	3.25995234e+02
425             	3.25999486e+02
426             	3.26003690e+02
427             	3.26007851e+02
428             	3.26011964e+02
429             	3.26016037e+02
430             	3.26020065e+02
431             	3.26024052e+02
432             	3.26027993e+02
433             	3.26031895e+02
434             	3.26035752e+02
435             	3.26039573e+02
436             	3.26043353e+02
437             	3.26047101e+02
438             	3.26050811e+02
439             	3.26054488e+02
440             	3.26058126e+02
441             	3.26061731e+02
442             	3.26065296e+02
443             	3.26068824e+02
444             	3.26072313e+02
445             	3.26075768e+02
446             	3.26079187e+02
447             	3.26082572e+02
448             	3.26085924e+02
449             	3.26089246e+02
450             	3.26092532e+02
451             	3.26095789e+02
452             	3.26099011e+02
453             	3.26102201e+02
454             	3.26105359e+02
455             	3.26108490e+02
456             	3.26111590e+02
457             	3.26114657e+02
458             	3.26117696e+02
459             	3.26120712e+02
460             	3.26123699e+02
461             	3.26126659e+02
462             	3.26129588e+02
463             	3.26132487e+02
464             	3.26135356e+02
465             	3.26138202e+02
466             	3.26141016e+02
467             	3.26143805e+02
468             	3.26146565e+02
469             	3.26149296e+02
470             	3.26151997e+02
471             	3.26154671e+02
472             	3.26157315e+02
473             	3.26159937e+02
474             	3.26162521e+02
475             	3.26165085e+02
476             	3.26167624e+02
477             	3.26170143e+02
478             	3.26172634e+02
479             	3.26175102e+02
480             	3.26177550e+02
481             	3.26179978e+02
482             	3.26182373e+02
483             	3.26184746e+02
484             	3.26187089e+02
485             	3.26189414e+02
486             	3.26191721e+02
487             	3.26194015e+02
488             	3.26196287e+02
489             	3.26198541e+02
490             	3.26200778e+02
491             	3.26202990e+02
492             	3.26205175e+02
493             	3.26207342e+02
494             	3.26209487e+02
495             	3.26211615e+02
496             	3.26213720e+02
497             	3.26215811e+02
498             	3.26217880e+02
499             	3.26219939e+02
500             	3.26221979e+02
501             	3.26224006e+02
502             	3.26226015e+02
503             	3.26228009e+02
504             	3.26229984e+02
505             	3.26231948e+02
506             	3.26233889e+02
507             	3.26235812e+02
508             	3.26237715e+02
509             	3.26239602e+02
510             	3.26241470e+02
511             	3.26243326e+02
512             	3.26245167e+02
513             	3.26246997e+02
514             	3.26248810e+02
515             	3.26250610e+02
516             	3.26252392e+02
517             	3.26254152e+02
518             	3.26255897e+02
519             	3.26257628e+02
520             	3.26259342e+02
521             	3.26261044e+02
522             	3.26262731e+02
523             	3.26264407e+02
524             	3.26266070e+02
525             	3.26267720e+02
526             	3.26269355e+02
527             	3.26270978e+02
528             	3.26272588e+02
529             	3.26274188e+02
530             	3.26275769e+02
531             	3.26277340e+02
532             	3.26278896e+02
533             	3.26280443e+02
534             	3.26281975e+02
535             	3.26283497e+02
536             	3.26285005e+02
537             	3.26286503e+02
538             	3.26287989e+02
539             	3.26289463e+02
540             	3.26290921e+02
541             	3.26292370e+02
542             	3.26293806e+02
543             	3.26295233e+02
544             	3.26296646e+02
545             	3.26298050e+02
546             	3.26299442e+02
547             	3.26300827e+02
548             	3.26302200e+02
549             	3.26303566e+02
550             	3.26304920e+02
551             	3.26306265e+02
552             	3.26307604e+02
553             	3.26308931e+02
554             	3.26310244e+02
555             	3.26311548e+02
556             	3.26312840e+02
557             	3.26314123e+02
558             	3.26315398e+02
559             	3.26316666e+02
560             	3.26317924e+02
561             	3.26319175e+02
562             	3.26320415e+02
563             	3.26321649e+02
564             	3.26322871e+02
565             	3.26324085e+02
566             	3.26325289e+02
567             	3.26326487e+02
568             	3.26327675e+02
569             	3.26328857e+02
570             	3.26330028e+02
571             	3.26331195e+02
572             	3.26332355e+02
573             	3.26333511e+02
574             	3.26334659e+02
575             	3.26335802e+02
576             	3.26336937e+02
577             	3.26338065e+02
578             	3.26339185e+02
579             	3.26340299e+02
580             	3.26341404e+02
581             	3.26342505e+02
582             	3.26343597e+02
583             	3.26344681e+02
584             	3.26345757e+02
585             	3.26346830e+02
586             	3.26347890e+02
587             	3.26348948e+02
588             	3.26349997e+02
589             	3.26351040e+02
590             	3.26352076e+02
591             	3.26353103e+02
592             	3.26354121e+02
593             	3.26355132e+02
594             	3.26356137e+02
595             	3.26357136e+02
596             	3.26358126e+02
597             	3.26359110e+02
598             	3.26360087e+02
599             	3.26361061e+02
600             	3.26362030e+02
601             	3.26362995e+02
602             	3.26363953e+02
603             	3.26364907e+02
604             	3.26365859e+02
605             	3.26366802e+02
606             	3.26367734e+02
607             	3.26368661e+02
608             	3.26369581e+02
609             	3.26370497e+02
610             	3.26371405e+02
611             	3.26372311e+02
612             	3.26373212e+02
613             	3.26374110e+02
614             	3.26375004e+02
615             	3.26375894e+02
616             	3.26376779e+02
617             	3.26377661e+02
618             	3.26378538e+02
619             	3.26379413e+02
620             	3.26380282e+02
621             	3.26381146e+02
