# Region        : cellZone fluid
# Cells         : 9531
# Volume        : 1.81625569e+01
# Time          	volAverage(T)
1               	3.00000106e+02
2               	3.00000253e+02
3               	3.00001374e+02
4               	3.00002812e+02
5               	3.00003568e+02
6               	3.00004533e+02
7               	3.00005442e+02
8               	3.00006459e+02
9               	3.00007944e+02
10              	3.00010209e+02
11              	3.00011361e+02
12              	3.00013666e+02
13              	3.00015667e+02
14              	3.00018866e+02
15              	3.00020041e+02
16              	3.00022844e+02
17              	3.00024906e+02
18              	3.00027055e+02
19              	3.00029385e+02
20              	3.00032271e+02
21              	3.00035089e+02
22              	3.00038356e+02
23              	3.00042338e+02
24              	3.00046343e+02
25              	3.00049367e+02
26              	3.00053569e+02
27              	3.00056886e+02
28              	3.00060770e+02
29              	3.00064612e+02
30              	3.00070225e+02
31              	3.00074081e+02
32              	3.00081689e+02
33              	3.00088486e+02
34              	3.00093380e+02
35              	3.00097490e+02
36              	3.00101677e+02
37              	3.00103082e+02
38              	3.00105514e+02
39              	3.00108376e+02
40              	3.00110579e+02
41              	3.00116395e+02
42              	3.00119177e+02
43              	3.00121867e+02
44              	3.00123818e+02
45              	3.00125099e+02
46              	3.00128193e+02
47              	3.00131011e+02
48              	3.00133411e+02
49              	3.00136679e+02
50              	3.00143700e+02
51              	3.00147387e+02
52              	3.00151716e+02
53              	3.00157853e+02
54              	3.00162766e+02
55              	3.00166451e+02
56              	3.00171179e+02
57              	3.00177719e+02
58              	3.00182386e+02
59              	3.00186996e+02
60              	3.00191309e+02
61              	3.00195758e+02
62              	3.00202033e+02
63              	3.00207884e+02
64              	3.00212942e+02
65              	3.00217263e+02
66              	3.00220391e+02
67              	3.00224020e+02
68              	3.00228535e+02
69              	3.00232962e+02
70              	3.00236395e+02
71              	3.00240552e+02
72              	3.00244854e+02
73              	3.00249007e+02
74              	3.00253466e+02
75              	3.00256976e+02
76              	3.00261014e+02
77              	3.00265984e+02
78              	3.00266949e+02
79              	3.00269025e+02
80              	3.00272667e+02
81              	3.00275602e+02
82              	3.00277286e+02
83              	3.00279717e+02
84              	3.00282903e+02
85              	3.00287807e+02
86              	3.00291072e+02
87              	3.00294473e+02
88              	3.00296578e+02
89              	3.00299356e+02
90              	3.00302231e+02
91              	3.00304233e+02
92              	3.00307840e+02
93              	3.00311335e+02
94              	3.00313907e+02
95              	3.00317173e+02
96              	3.00320673e+02
97              	3.00325522e+02
98              	3.00326906e+02
99              	3.00331932e+02
100             	3.00334502e+02
101             	3.00336203e+02
102             	3.00339752e+02
103             	3.00342467e+02
104             	3.00344982e+02
105             	3.00348060e+02
106             	3.00350849e+02
107             	3.00354157e+02
108             	3.00356906e+02
109             	3.00360074e+02
110             	3.00361857e+02
111             	3.00364057e+02
112             	3.00367717e+02
113             	3.00371217e+02
114             	3.00372929e+02
115             	3.00375470e+02
116             	3.00378110e+02
117             	3.00379914e+02
118             	3.00380237e+02
119             	3.00381308e+02
120             	3.00383837e+02
121             	3.00387127e+02
122             	3.00388754e+02
123             	3.00390904e+02
124             	3.00395884e+02
125             	3.00399904e+02
126             	3.00403453e+02
127             	3.00406750e+02
128             	3.00409550e+02
129             	3.00413117e+02
130             	3.00413956e+02
131             	3.00413429e+02
132             	3.00412978e+02
133             	3.00412806e+02
134             	3.00411964e+02
135             	3.00411423e+02
136             	3.00410594e+02
137             	3.00411559e+02
138             	3.00413346e+02
139             	3.00416641e+02
140             	3.00419654e+02
141             	3.00420464e+02
142             	3.00425167e+02
143             	3.00427319e+02
144             	3.00427337e+02
145             	3.00427223e+02
146             	3.00428455e+02
147             	3.00429136e+02
148             	3.00429096e+02
149             	3.00428440e+02
150             	3.00429043e+02
151             	3.00431355e+02
152             	3.00433378e+02
153             	3.00436145e+02
154             	3.00441240e+02
155             	3.00444097e+02
156             	3.00446424e+02
157             	3.00447472e+02
158             	3.00447245e+02
159             	3.00448848e+02
160             	3.00449210e+02
161             	3.00452268e+02
162             	3.00453116e+02
163             	3.00454231e+02
164             	3.00454502e+02
165             	3.00456649e+02
166             	3.00461551e+02
167             	3.00464247e+02
168             	3.00469177e+02
169             	3.00472018e+02
170             	3.00474418e+02
171             	3.00475281e+02
172             	3.00478963e+02
173             	3.00480951e+02
174             	3.00480595e+02
175             	3.00480756e+02
176             	3.00483136e+02
177             	3.00484218e+02
178             	3.00486099e+02
179             	3.00487451e+02
180             	3.00488285e+02
181             	3.00491244e+02
182             	3.00491354e+02
183             	3.00491872e+02
184             	3.00492886e+02
185             	3.00496360e+02
186             	3.00499790e+02
187             	3.00501107e+02
188             	3.00503254e+02
189             	3.00504889e+02
190             	3.00506888e+02
191             	3.00511662e+02
192             	3.00513170e+02
193             	3.00516694e+02
194             	3.00522804e+02
195             	3.00522372e+02
196             	3.00522564e+02
197             	3.00525158e+02
198             	3.00527916e+02
199             	3.00526158e+02
200             	3.00526072e+02
201             	3.00526348e+02
202             	3.00527932e+02
203             	3.00530676e+02
204             	3.00530606e+02
205             	3.00532709e+02
206             	3.00534516e+02
207             	3.00534599e+02
208             	3.00536384e+02
209             	3.00537347e+02
210             	3.00538930e+02
211             	3.00540050e+02
212             	3.00541107e+02
213             	3.00540637e+02
214             	3.00541527e+02
215             	3.00542256e+02
216             	3.00544335e+02
217             	3.00546931e+02
218             	3.00547915e+02
219             	3.00550600e+02
220             	3.00552157e+02
221             	3.00554656e+02
222             	3.00555482e+02
223             	3.00557104e+02
224             	3.00559581e+02
225             	3.00563017e+02
226             	3.00564187e+02
227             	3.00566683e+02
228             	3.00566574e+02
229             	3.00567989e+02
230             	3.00569373e+02
231             	3.00571893e+02
232             	3.00573988e+02
233             	3.00576392e+02
234             	3.00577321e+02
235             	3.00578253e+02
236             	3.00578793e+02
237             	3.00577126e+02
238             	3.00577670e+02
239             	3.00578261e+02
240             	3.00579249e+02
241             	3.00579513e+02
242             	3.00579379e+02
243             	3.00581499e+02
244             	3.00582587e+02
245             	3.00583232e+02
246             	3.00584956e+02
247             	3.00584672e+02
248             	3.00586340e+02
249             	3.00587175e+02
250             	3.00587164e+02
251             	3.00585413e+02
252             	3.00587257e+02
253             	3.00587608e+02
254             	3.00586506e+02
255             	3.00585741e+02
256             	3.00584038e+02
257             	3.00585523e+02
258             	3.00586467e+02
259             	3.00586574e+02
260             	3.00586499e+02
261             	3.00586990e+02
262             	3.00588067e+02
263             	3.00587403e+02
264             	3.00588074e+02
265             	3.00586028e+02
266             	3.00585132e+02
267             	3.00583703e+02
268             	3.00583780e+02
269             	3.00583494e+02
270             	3.00583195e+02
271             	3.00583163e+02
272             	3.00582826e+02
273             	3.00582884e+02
274             	3.00583282e+02
275             	3.00583081e+02
276             	3.00581301e+02
277             	3.00580600e+02
278             	3.00578758e+02
279             	3.00578304e+02
280             	3.00577497e+02
281             	3.00577266e+02
282             	3.00577272e+02
283             	3.00576871e+02
284             	3.00576410e+02
285             	3.00575484e+02
286             	3.00572505e+02
287             	3.00571541e+02
288             	3.00570434e+02
289             	3.00568259e+02
290             	3.00566530e+02
291             	3.00564485e+02
292             	3.00563467e+02
293             	3.00561856e+02
294             	3.00560425e+02
295             	3.00559557e+02
296             	3.00561265e+02
297             	3.00559700e+02
298             	3.00558771e+02
299             	3.00557685e+02
300             	3.00556503e+02
301             	3.00555562e+02
302             	3.00554936e+02
303             	3.00552683e+02
304             	3.00551448e+02
305             	3.00549235e+02
306             	3.00548298e+02
307             	3.00548144e+02
308             	3.00547503e+02
309             	3.00546607e+02
310             	3.00545419e+02
311             	3.00545062e+02
312             	3.00545080e+02
313             	3.00544936e+02
314             	3.00543067e+02
315             	3.00543774e+02
316             	3.00541897e+02
317             	3.00540970e+02
318             	3.00538215e+02
319             	3.00536549e+02
320             	3.00535716e+02
321             	3.00534065e+02
322             	3.00533513e+02
323             	3.00530738e+02
324             	3.00528887e+02
325             	3.00526622e+02
326             	3.00524142e+02
327             	3.00522524e+02
328             	3.00521543e+02
329             	3.00520864e+02
330             	3.00519354e+02
331             	3.00518908e+02
332             	3.00518657e+02
333             	3.00522104e+02
334             	3.00521104e+02
335             	3.00520581e+02
336             	3.00520693e+02
337             	3.00520151e+02
338             	3.00519815e+02
339             	3.00519562e+02
340             	3.00518955e+02
341             	3.00518635e+02
342             	3.00518280e+02
343             	3.00517665e+02
344             	3.00516955e+02
345             	3.00518361e+02
346             	3.00519205e+02
347             	3.00520984e+02
348             	3.00524115e+02
349             	3.00524803e+02
350             	3.00524307e+02
351             	3.00524432e+02
352             	3.00523854e+02
353             	3.00522080e+02
354             	3.00520545e+02
355             	3.00519365e+02
356             	3.00521376e+02
357             	3.00520343e+02
358             	3.00518138e+02
359             	3.00517499e+02
360             	3.00517154e+02
361             	3.00515284e+02
362             	3.00513924e+02
363             	3.00511283e+02
364             	3.00511128e+02
365             	3.00509942e+02
366             	3.00508647e+02
367             	3.00507426e+02
368             	3.00506884e+02
369             	3.00505787e+02
370             	3.00504851e+02
371             	3.00504683e+02
372             	3.00503603e+02
373             	3.00504452e+02
374             	3.00504143e+02
375             	3.00504462e+02
376             	3.00504435e+02
377             	3.00504039e+02
378             	3.00503742e+02
379             	3.00503516e+02
380             	3.00503355e+02
381             	3.00503443e+02
382             	3.00503641e+02
383             	3.00503965e+02
384             	3.00504259e+02
385             	3.00504666e+02
386             	3.00505087e+02
387             	3.00504970e+02
388             	3.00506334e+02
389             	3.00507418e+02
390             	3.00508347e+02
391             	3.00509067e+02
392             	3.00510063e+02
393             	3.00510356e+02
394             	3.00510755e+02
395             	3.00511005e+02
396             	3.00511030e+02
397             	3.00511008e+02
398             	3.00511199e+02
399             	3.00511459e+02
400             	3.00511457e+02
401             	3.00511479e+02
402             	3.00511716e+02
403             	3.00511144e+02
404             	3.00510842e+02
405             	3.00510692e+02
406             	3.00510458e+02
407             	3.00510279e+02
408             	3.00510165e+02
409             	3.00509959e+02
410             	3.00510308e+02
411             	3.00510537e+02
412             	3.00510807e+02
413             	3.00510927e+02
414             	3.00510717e+02
415             	3.00510748e+02
416             	3.00510703e+02
417             	3.00510617e+02
418             	3.00510589e+02
419             	3.00510835e+02
420             	3.00511005e+02
421             	3.00511171e+02
422             	3.00511541e+02
423             	3.00512722e+02
424             	3.00512781e+02
425             	3.00513141e+02
426             	3.00513330e+02
427             	3.00513643e+02
428             	3.00514107e+02
429             	3.00514279e+02
430             	3.00514609e+02
431             	3.00514641e+02
432             	3.00515008e+02
433             	3.00515197e+02
434             	3.00515503e+02
435             	3.00515548e+02
436             	3.00515867e+02
437             	3.00516069e+02
438             	3.00516404e+02
439             	3.00516480e+02
440             	3.00516983e+02
441             	3.00517279e+02
442             	3.00517517e+02
443             	3.00517644e+02
444             	3.00517664e+02
445             	3.00517849e+02
446             	3.00518043e+02
447             	3.00518185e+02
448             	3.00518454e+02
449             	3.00518515e+02
450             	3.00518808e+02
451             	3.00518879e+02
452             	3.00518938e+02
453             	3.00519143e+02
454             	3.00519412e+02
455             	3.00519400e+02
456             	3.00519691e+02
457             	3.00520887e+02
458             	3.00520282e+02
459             	3.00519905e+02
460             	3.00519903e+02
461             	3.00519721e+02
462             	3.00519928e+02
463             	3.00519743e+02
464             	3.00519954e+02
465             	3.00520013e+02
466             	3.00520325e+02
467             	3.00520428e+02
468             	3.00520766e+02
469             	3.00520920e+02
470             	3.00521244e+02
471             	3.00521509e+02
472             	3.00521485e+02
473             	3.00522059e+02
474             	3.00522382e+02
475             	3.00522663e+02
476             	3.00522852e+02
477             	3.00522941e+02
478             	3.00523049e+02
479             	3.00523213e+02
480             	3.00523769e+02
481             	3.00523948e+02
482             	3.00525560e+02
483             	3.00525060e+02
484             	3.00525054e+02
485             	3.00525416e+02
486             	3.00525881e+02
487             	3.00525976e+02
488             	3.00526128e+02
489             	3.00526005e+02
490             	3.00525708e+02
491             	3.00526161e+02
492             	3.00526341e+02
493             	3.00526466e+02
494             	3.00526791e+02
495             	3.00527100e+02
496             	3.00527196e+02
497             	3.00527381e+02
498             	3.00527583e+02
499             	3.00528430e+02
500             	3.00528240e+02
501             	3.00528310e+02
502             	3.00528554e+02
503             	3.00528932e+02
504             	3.00529416e+02
505             	3.00529545e+02
506             	3.00529639e+02
507             	3.00529518e+02
508             	3.00529530e+02
509             	3.00529352e+02
510             	3.00529460e+02
511             	3.00529407e+02
512             	3.00529401e+02
513             	3.00529340e+02
514             	3.00529435e+02
515             	3.00529423e+02
516             	3.00529679e+02
517             	3.00529726e+02
518             	3.00529921e+02
519             	3.00529509e+02
520             	3.00530246e+02
521             	3.00530753e+02
522             	3.00531068e+02
523             	3.00531313e+02
524             	3.00532302e+02
525             	3.00532069e+02
526             	3.00532409e+02
527             	3.00533111e+02
528             	3.00533094e+02
529             	3.00533104e+02
530             	3.00533453e+02
531             	3.00534052e+02
532             	3.00534114e+02
533             	3.00534058e+02
534             	3.00533890e+02
535             	3.00534401e+02
536             	3.00534721e+02
537             	3.00534555e+02
538             	3.00534821e+02
539             	3.00535108e+02
540             	3.00535457e+02
541             	3.00535515e+02
542             	3.00535758e+02
543             	3.00535783e+02
544             	3.00535957e+02
545             	3.00535938e+02
546             	3.00536242e+02
547             	3.00536250e+02
548             	3.00536218e+02
549             	3.00536088e+02
550             	3.00536314e+02
551             	3.00535904e+02
552             	3.00535758e+02
553             	3.00535522e+02
554             	3.00535345e+02
555             	3.00535283e+02
556             	3.00535211e+02
557             	3.00535244e+02
558             	3.00535328e+02
559             	3.00535424e+02
560             	3.00535477e+02
561             	3.00535612e+02
562             	3.00535692e+02
563             	3.00535755e+02
564             	3.00535785e+02
565             	3.00535960e+02
566             	3.00536020e+02
567             	3.00536207e+02
568             	3.00536413e+02
569             	3.00536566e+02
570             	3.00536662e+02
571             	3.00536795e+02
572             	3.00536739e+02
573             	3.00536932e+02
574             	3.00537008e+02
575             	3.00537235e+02
576             	3.00537439e+02
577             	3.00537863e+02
578             	3.00537940e+02
579             	3.00538213e+02
580             	3.00538256e+02
581             	3.00538228e+02
582             	3.00538393e+02
583             	3.00538302e+02
584             	3.00538412e+02
585             	3.00538279e+02
586             	3.00538365e+02
587             	3.00538217e+02
588             	3.00538325e+02
589             	3.00538209e+02
590             	3.00538339e+02
591             	3.00538273e+02
592             	3.00538407e+02
593             	3.00538450e+02
594             	3.00538583e+02
595             	3.00538117e+02
596             	3.00538476e+02
597             	3.00538403e+02
598             	3.00538490e+02
599             	3.00538330e+02
600             	3.00538423e+02
601             	3.00538361e+02
602             	3.00538500e+02
603             	3.00538513e+02
604             	3.00538763e+02
605             	3.00538905e+02
606             	3.00539128e+02
607             	3.00538911e+02
608             	3.00539045e+02
609             	3.00538888e+02
610             	3.00538903e+02
611             	3.00538720e+02
612             	3.00538779e+02
613             	3.00538594e+02
614             	3.00538656e+02
615             	3.00538510e+02
616             	3.00538655e+02
617             	3.00538609e+02
618             	3.00538881e+02
619             	3.00538899e+02
620             	3.00539168e+02
621             	3.00539094e+02
