# Region        : cellZone pcb
# Cells         : 876
# Volume        : 1.64906006e+00
# Time          	volAverage(T)
1               	3.00001699e+02
2               	3.00005095e+02
3               	3.00010170e+02
4               	3.00016705e+02
5               	3.00024382e+02
6               	3.00033305e+02
7               	3.00043375e+02
8               	3.00054603e+02
9               	3.00066824e+02
10              	3.00079989e+02
11              	3.00094286e+02
12              	3.00109392e+02
13              	3.00125352e+02
14              	3.00142085e+02
15              	3.00159560e+02
16              	3.00177758e+02
17              	3.00196548e+02
18              	3.00216008e+02
19              	3.00235906e+02
20              	3.00256325e+02
21              	3.00277210e+02
22              	3.00298558e+02
23              	3.00320390e+02
24              	3.00342716e+02
25              	3.00365587e+02
26              	3.00388943e+02
27              	3.00412640e+02
28              	3.00436709e+02
29              	3.00461213e+02
30              	3.00486008e+02
31              	3.00511155e+02
32              	3.00536631e+02
33              	3.00562425e+02
34              	3.00588569e+02
35              	3.00614718e+02
36              	3.00641091e+02
37              	3.00667863e+02
38              	3.00694958e+02
39              	3.00722435e+02
40              	3.00750084e+02
41              	3.00778078e+02
42              	3.00806123e+02
43              	3.00833988e+02
44              	3.00861973e+02
45              	3.00890021e+02
46              	3.00918171e+02
47              	3.00947107e+02
48              	3.00975512e+02
49              	3.01003865e+02
50              	3.01032401e+02
51              	3.01060988e+02
52              	3.01089595e+02
53              	3.01118501e+02
54              	3.01147438e+02
55              	3.01176588e+02
56              	3.01205652e+02
57              	3.01234394e+02
58              	3.01263374e+02
59              	3.01292353e+02
60              	3.01321281e+02
61              	3.01350054e+02
62              	3.01379004e+02
63              	3.01408384e+02
64              	3.01438222e+02
65              	3.01467377e+02
66              	3.01496329e+02
67              	3.01525787e+02
68              	3.01555111e+02
69              	3.01583988e+02
70              	3.01612255e+02
71              	3.01640379e+02
72              	3.01668974e+02
73              	3.01698097e+02
74              	3.01727728e+02
75              	3.01757344e+02
76              	3.01786360e+02
77              	3.01814497e+02
78              	3.01842003e+02
79              	3.01869041e+02
80              	3.01896106e+02
81              	3.01923037e+02
82              	3.01949852e+02
83              	3.01976965e+02
84              	3.02004779e+02
85              	3.02032465e+02
86              	3.02060072e+02
87              	3.02087682e+02
88              	3.02115748e+02
89              	3.02142514e+02
90              	3.02168799e+02
91              	3.02194341e+02
92              	3.02219856e+02
93              	3.02245916e+02
94              	3.02272242e+02
95              	3.02298897e+02
96              	3.02325608e+02
97              	3.02352710e+02
98              	3.02379702e+02
99              	3.02406325e+02
100             	3.02432719e+02
101             	3.02458122e+02
102             	3.02483217e+02
103             	3.02507949e+02
104             	3.02533411e+02
105             	3.02559711e+02
106             	3.02584773e+02
107             	3.02609478e+02
108             	3.02634074e+02
109             	3.02658411e+02
110             	3.02682382e+02
111             	3.02706574e+02
112             	3.02731272e+02
113             	3.02756134e+02
114             	3.02781195e+02
115             	3.02805396e+02
116             	3.02829854e+02
117             	3.02853692e+02
118             	3.02877265e+02
119             	3.02900157e+02
120             	3.02923108e+02
121             	3.02945686e+02
122             	3.02968424e+02
123             	3.02991182e+02
124             	3.03014258e+02
125             	3.03037589e+02
126             	3.03060392e+02
127             	3.03083322e+02
128             	3.03106093e+02
129             	3.03127975e+02
130             	3.03149087e+02
131             	3.03170389e+02
132             	3.03192161e+02
133             	3.03214257e+02
134             	3.03236417e+02
135             	3.03257903e+02
136             	3.03278654e+02
137             	3.03299259e+02
138             	3.03320125e+02
139             	3.03341474e+02
140             	3.03362720e+02
141             	3.03383933e+02
142             	3.03404786e+02
143             	3.03425055e+02
144             	3.03444739e+02
145             	3.03464417e+02
146             	3.03483873e+02
147             	3.03503088e+02
148             	3.03522450e+02
149             	3.03541666e+02
150             	3.03561084e+02
151             	3.03580774e+02
152             	3.03600281e+02
153             	3.03619615e+02
154             	3.03639242e+02
155             	3.03659336e+02
156             	3.03679567e+02
157             	3.03699889e+02
158             	3.03719273e+02
159             	3.03738225e+02
160             	3.03756489e+02
161             	3.03774975e+02
162             	3.03792804e+02
163             	3.03810335e+02
164             	3.03828147e+02
165             	3.03846305e+02
166             	3.03864686e+02
167             	3.03883046e+02
168             	3.03901269e+02
169             	3.03919144e+02
170             	3.03935886e+02
171             	3.03952672e+02
172             	3.03968958e+02
173             	3.03984885e+02
174             	3.04001006e+02
175             	3.04017232e+02
176             	3.04033117e+02
177             	3.04049311e+02
178             	3.04066106e+02
179             	3.04083380e+02
180             	3.04100557e+02
181             	3.04116819e+02
182             	3.04131941e+02
183             	3.04146788e+02
184             	3.04162708e+02
185             	3.04178301e+02
186             	3.04193247e+02
187             	3.04208152e+02
188             	3.04222958e+02
189             	3.04237797e+02
190             	3.04252812e+02
191             	3.04267869e+02
192             	3.04282825e+02
193             	3.04298292e+02
194             	3.04313938e+02
195             	3.04329254e+02
196             	3.04344283e+02
197             	3.04358951e+02
198             	3.04373053e+02
199             	3.04386941e+02
200             	3.04400510e+02
201             	3.04413842e+02
202             	3.04427150e+02
203             	3.04440338e+02
204             	3.04454176e+02
205             	3.04467586e+02
206             	3.04480370e+02
207             	3.04493210e+02
208             	3.04506137e+02
209             	3.04519178e+02
210             	3.04532304e+02
211             	3.04545071e+02
212             	3.04557513e+02
213             	3.04570229e+02
214             	3.04583001e+02
215             	3.04595294e+02
216             	3.04606911e+02
217             	3.04618650e+02
218             	3.04630777e+02
219             	3.04643321e+02
220             	3.04656225e+02
221             	3.04668834e+02
222             	3.04681224e+02
223             	3.04693225e+02
224             	3.04704513e+02
225             	3.04715496e+02
226             	3.04726255e+02
227             	3.04737008e+02
228             	3.04747750e+02
229             	3.04758655e+02
230             	3.04770044e+02
231             	3.04781159e+02
232             	3.04791729e+02
233             	3.04802156e+02
234             	3.04812349e+02
235             	3.04822416e+02
236             	3.04832645e+02
237             	3.04843002e+02
238             	3.04853562e+02
239             	3.04864357e+02
240             	3.04875605e+02
241             	3.04887201e+02
242             	3.04898370e+02
243             	3.04908817e+02
244             	3.04918583e+02
245             	3.04928036e+02
246             	3.04937459e+02
247             	3.04946829e+02
248             	3.04956268e+02
249             	3.04965876e+02
250             	3.04975436e+02
251             	3.04985180e+02
252             	3.04995064e+02
253             	3.05004646e+02
254             	3.05013653e+02
255             	3.05022125e+02
256             	3.05030512e+02
257             	3.05039072e+02
258             	3.05047714e+02
259             	3.05056375e+02
260             	3.05064909e+02
261             	3.05073143e+02
262             	3.05081427e+02
263             	3.05089705e+02
264             	3.05097959e+02
265             	3.05106266e+02
266             	3.05114040e+02
267             	3.05121870e+02
268             	3.05130147e+02
269             	3.05138473e+02
270             	3.05146688e+02
271             	3.05154765e+02
272             	3.05162739e+02
273             	3.05170526e+02
274             	3.05178732e+02
275             	3.05186317e+02
276             	3.05193212e+02
277             	3.05200192e+02
278             	3.05207177e+02
279             	3.05214316e+02
280             	3.05221581e+02
281             	3.05228944e+02
282             	3.05236386e+02
283             	3.05243301e+02
284             	3.05250052e+02
285             	3.05257228e+02
286             	3.05264643e+02
287             	3.05272104e+02
288             	3.05279649e+02
289             	3.05286785e+02
290             	3.05293496e+02
291             	3.05299716e+02
292             	3.05305635e+02
293             	3.05311723e+02
294             	3.05318345e+02
295             	3.05324808e+02
296             	3.05330936e+02
297             	3.05337238e+02
298             	3.05343708e+02
299             	3.05350285e+02
300             	3.05356840e+02
301             	3.05363168e+02
302             	3.05369328e+02
303             	3.05375247e+02
304             	3.05380851e+02
305             	3.05386237e+02
306             	3.05391880e+02
307             	3.05397751e+02
308             	3.05403566e+02
309             	3.05409417e+02
310             	3.05415587e+02
311             	3.05421901e+02
312             	3.05428003e+02
313             	3.05433502e+02
314             	3.05438629e+02
315             	3.05443773e+02
316             	3.05448904e+02
317             	3.05454043e+02
318             	3.05459062e+02
319             	3.05463971e+02
320             	3.05469251e+02
321             	3.05474962e+02
322             	3.05480886e+02
323             	3.05486679e+02
324             	3.05492209e+02
325             	3.05497359e+02
326             	3.05502300e+02
327             	3.05507176e+02
328             	3.05512286e+02
329             	3.05517185e+02
330             	3.05521284e+02
331             	3.05525253e+02
332             	3.05529676e+02
333             	3.05534322e+02
334             	3.05538994e+02
335             	3.05543633e+02
336             	3.05547949e+02
337             	3.05552514e+02
338             	3.05556831e+02
339             	3.05561190e+02
340             	3.05565740e+02
341             	3.05570297e+02
342             	3.05574914e+02
343             	3.05579628e+02
344             	3.05584225e+02
345             	3.05588680e+02
346             	3.05592609e+02
347             	3.05596210e+02
348             	3.05599783e+02
349             	3.05603939e+02
350             	3.05607953e+02
351             	3.05611715e+02
352             	3.05615511e+02
353             	3.05619280e+02
354             	3.05623013e+02
355             	3.05626709e+02
356             	3.05630438e+02
357             	3.05634172e+02
358             	3.05637924e+02
359             	3.05641686e+02
360             	3.05645485e+02
361             	3.05649198e+02
362             	3.05652907e+02
363             	3.05656640e+02
364             	3.05660374e+02
365             	3.05663836e+02
366             	3.05667175e+02
367             	3.05670524e+02
368             	3.05673798e+02
369             	3.05677144e+02
370             	3.05680522e+02
371             	3.05683907e+02
372             	3.05687217e+02
373             	3.05690492e+02
374             	3.05693767e+02
375             	3.05697043e+02
376             	3.05700273e+02
377             	3.05703422e+02
378             	3.05706555e+02
379             	3.05709704e+02
380             	3.05713007e+02
381             	3.05716999e+02
382             	3.05720463e+02
383             	3.05723332e+02
384             	3.05726176e+02
385             	3.05729007e+02
386             	3.05731853e+02
387             	3.05734590e+02
388             	3.05737597e+02
389             	3.05741003e+02
390             	3.05744409e+02
391             	3.05747768e+02
392             	3.05751141e+02
393             	3.05754261e+02
394             	3.05756758e+02
395             	3.05758854e+02
396             	3.05760946e+02
397             	3.05763122e+02
398             	3.05765939e+02
399             	3.05768698e+02
400             	3.05771016e+02
401             	3.05773423e+02
402             	3.05776095e+02
403             	3.05778866e+02
404             	3.05781498e+02
405             	3.05783980e+02
406             	3.05786591e+02
407             	3.05789327e+02
408             	3.05791347e+02
409             	3.05793374e+02
410             	3.05795785e+02
411             	3.05798262e+02
412             	3.05800753e+02
413             	3.05803080e+02
414             	3.05805293e+02
415             	3.05808046e+02
416             	3.05811361e+02
417             	3.05813660e+02
418             	3.05815192e+02
419             	3.05816887e+02
420             	3.05818898e+02
421             	3.05821199e+02
422             	3.05823155e+02
423             	3.05825184e+02
424             	3.05827951e+02
425             	3.05830951e+02
426             	3.05833750e+02
427             	3.05836308e+02
428             	3.05838791e+02
429             	3.05841113e+02
430             	3.05843045e+02
431             	3.05844866e+02
432             	3.05846891e+02
433             	3.05849654e+02
434             	3.05851917e+02
435             	3.05853473e+02
436             	3.05855112e+02
437             	3.05856877e+02
438             	3.05858811e+02
439             	3.05860863e+02
440             	3.05862576e+02
441             	3.05864660e+02
442             	3.05867014e+02
443             	3.05869099e+02
444             	3.05871220e+02
445             	3.05873422e+02
446             	3.05875369e+02
447             	3.05877018e+02
448             	3.05878460e+02
449             	3.05879663e+02
450             	3.05880848e+02
451             	3.05882269e+02
452             	3.05884358e+02
453             	3.05886089e+02
454             	3.05887432e+02
455             	3.05888866e+02
456             	3.05890377e+02
457             	3.05891901e+02
458             	3.05893518e+02
459             	3.05895336e+02
460             	3.05896942e+02
461             	3.05898272e+02
462             	3.05900000e+02
463             	3.05902047e+02
464             	3.05904090e+02
465             	3.05906169e+02
466             	3.05908583e+02
467             	3.05911373e+02
468             	3.05912937e+02
469             	3.05913618e+02
470             	3.05914285e+02
471             	3.05915251e+02
472             	3.05916533e+02
473             	3.05918032e+02
474             	3.05919711e+02
475             	3.05921316e+02
476             	3.05923303e+02
477             	3.05924982e+02
478             	3.05926632e+02
479             	3.05928332e+02
480             	3.05930039e+02
481             	3.05931766e+02
482             	3.05933335e+02
483             	3.05934598e+02
484             	3.05935645e+02
485             	3.05936637e+02
486             	3.05938115e+02
487             	3.05939745e+02
488             	3.05940723e+02
489             	3.05941407e+02
490             	3.05942451e+02
491             	3.05943994e+02
492             	3.05945214e+02
493             	3.05946393e+02
494             	3.05947729e+02
495             	3.05949202e+02
496             	3.05950747e+02
497             	3.05952205e+02
498             	3.05953662e+02
499             	3.05954969e+02
500             	3.05956215e+02
501             	3.05957600e+02
502             	3.05958707e+02
503             	3.05960063e+02
504             	3.05960951e+02
505             	3.05961252e+02
506             	3.05961668e+02
507             	3.05962252e+02
508             	3.05963059e+02
509             	3.05964220e+02
510             	3.05965704e+02
511             	3.05967266e+02
512             	3.05968257e+02
513             	3.05969401e+02
514             	3.05970260e+02
515             	3.05971329e+02
516             	3.05972606e+02
517             	3.05973812e+02
518             	3.05974727e+02
519             	3.05975479e+02
520             	3.05976182e+02
521             	3.05976907e+02
522             	3.05977705e+02
523             	3.05978727e+02
524             	3.05980077e+02
525             	3.05980835e+02
526             	3.05981193e+02
527             	3.05981682e+02
528             	3.05982339e+02
529             	3.05983239e+02
530             	3.05984039e+02
531             	3.05984576e+02
532             	3.05985134e+02
533             	3.05985924e+02
534             	3.05986991e+02
535             	3.05988496e+02
536             	3.05989964e+02
537             	3.05991314e+02
538             	3.05992882e+02
539             	3.05993686e+02
540             	3.05993875e+02
541             	3.05994169e+02
542             	3.05995003e+02
543             	3.05995451e+02
544             	3.05995712e+02
545             	3.05996241e+02
546             	3.05996804e+02
547             	3.05997502e+02
548             	3.05997936e+02
549             	3.05998695e+02
550             	3.06000009e+02
551             	3.06001455e+02
552             	3.06002865e+02
553             	3.06003945e+02
554             	3.06004588e+02
555             	3.06005178e+02
556             	3.06005597e+02
557             	3.06005876e+02
558             	3.06006221e+02
559             	3.06006726e+02
560             	3.06007185e+02
561             	3.06007936e+02
562             	3.06008635e+02
563             	3.06009228e+02
564             	3.06009668e+02
565             	3.06009840e+02
566             	3.06009958e+02
567             	3.06010205e+02
568             	3.06010558e+02
569             	3.06011009e+02
570             	3.06011605e+02
571             	3.06012408e+02
572             	3.06012949e+02
573             	3.06013247e+02
574             	3.06013895e+02
575             	3.06015101e+02
576             	3.06016331e+02
577             	3.06017378e+02
578             	3.06018230e+02
579             	3.06018645e+02
580             	3.06018595e+02
581             	3.06018601e+02
582             	3.06019236e+02
583             	3.06019494e+02
584             	3.06019425e+02
585             	3.06019544e+02
586             	3.06019851e+02
587             	3.06020478e+02
588             	3.06021174e+02
589             	3.06021705e+02
590             	3.06022631e+02
591             	3.06023433e+02
592             	3.06024194e+02
593             	3.06025123e+02
594             	3.06025971e+02
595             	3.06026723e+02
596             	3.06027286e+02
597             	3.06028038e+02
598             	3.06028364e+02
599             	3.06028305e+02
600             	3.06028313e+02
601             	3.06028398e+02
602             	3.06028579e+02
603             	3.06029095e+02
604             	3.06029872e+02
605             	3.06030402e+02
606             	3.06030651e+02
607             	3.06031136e+02
608             	3.06031966e+02
609             	3.06032915e+02
610             	3.06032761e+02
611             	3.06032642e+02
612             	3.06033423e+02
613             	3.06034065e+02
614             	3.06034253e+02
615             	3.06034276e+02
616             	3.06034327e+02
617             	3.06034392e+02
618             	3.06034601e+02
619             	3.06035126e+02
620             	3.06035801e+02
621             	3.06036142e+02
