# Region        : cellZone component_0
# Cells         : 486
# Volume        : 1.06452985e+00
# Time          	volAverage(T)
1               	3.00331282e+02
2               	3.00659957e+02
3               	3.00964686e+02
4               	3.01254503e+02
5               	3.01538601e+02
6               	3.01818623e+02
7               	3.02095028e+02
8               	3.02368502e+02
9               	3.02639670e+02
10              	3.02908427e+02
11              	3.03174937e+02
12              	3.03439523e+02
13              	3.03701548e+02
14              	3.03962440e+02
15              	3.04220642e+02
16              	3.04478127e+02
17              	3.04732889e+02
18              	3.04985012e+02
19              	3.05233173e+02
20              	3.05477519e+02
21              	3.05718715e+02
22              	3.05955511e+02
23              	3.06190075e+02
24              	3.06421898e+02
25              	3.06649840e+02
26              	3.06875046e+02
27              	3.07098701e+02
28              	3.07322837e+02
29              	3.07542481e+02
30              	3.07753641e+02
31              	3.07963933e+02
32              	3.08181127e+02
33              	3.08392716e+02
34              	3.08605138e+02
35              	3.08815357e+02
36              	3.09018863e+02
37              	3.09221910e+02
38              	3.09421389e+02
39              	3.09616055e+02
40              	3.09806196e+02
41              	3.09991801e+02
42              	3.10174032e+02
43              	3.10353256e+02
44              	3.10538082e+02
45              	3.10713186e+02
46              	3.10887312e+02
47              	3.11060640e+02
48              	3.11232187e+02
49              	3.11402336e+02
50              	3.11570645e+02
51              	3.11737064e+02
52              	3.11900977e+02
53              	3.12061935e+02
54              	3.12219600e+02
55              	3.12374378e+02
56              	3.12526669e+02
57              	3.12676165e+02
58              	3.12823192e+02
59              	3.12967239e+02
60              	3.13108012e+02
61              	3.13244612e+02
62              	3.13377988e+02
63              	3.13508429e+02
64              	3.13636513e+02
65              	3.13763275e+02
66              	3.13889691e+02
67              	3.14015875e+02
68              	3.14141956e+02
69              	3.14267213e+02
70              	3.14390836e+02
71              	3.14512171e+02
72              	3.14630296e+02
73              	3.14744051e+02
74              	3.14852678e+02
75              	3.14957799e+02
76              	3.15060463e+02
77              	3.15161964e+02
78              	3.15262789e+02
79              	3.15362723e+02
80              	3.15461516e+02
81              	3.15557745e+02
82              	3.15652565e+02
83              	3.15744664e+02
84              	3.15833836e+02
85              	3.15920061e+02
86              	3.16003801e+02
87              	3.16086001e+02
88              	3.16167766e+02
89              	3.16249596e+02
90              	3.16331456e+02
91              	3.16413215e+02
92              	3.16494094e+02
93              	3.16573446e+02
94              	3.16650233e+02
95              	3.16724147e+02
96              	3.16794769e+02
97              	3.16862147e+02
98              	3.16926636e+02
99              	3.16989059e+02
100             	3.17050092e+02
101             	3.17110733e+02
102             	3.17170818e+02
103             	3.17230441e+02
104             	3.17289522e+02
105             	3.17347913e+02
106             	3.17405346e+02
107             	3.17461586e+02
108             	3.17516582e+02
109             	3.17570306e+02
110             	3.17623038e+02
111             	3.17674799e+02
112             	3.17725286e+02
113             	3.17774187e+02
114             	3.17821324e+02
115             	3.17866513e+02
116             	3.17909810e+02
117             	3.17951418e+02
118             	3.17991469e+02
119             	3.18030657e+02
120             	3.18069545e+02
121             	3.18108527e+02
122             	3.18147738e+02
123             	3.18187189e+02
124             	3.18226642e+02
125             	3.18265215e+02
126             	3.18302355e+02
127             	3.18337739e+02
128             	3.18371049e+02
129             	3.18402130e+02
130             	3.18431203e+02
131             	3.18459272e+02
132             	3.18486885e+02
133             	3.18515002e+02
134             	3.18543901e+02
135             	3.18573278e+02
136             	3.18603078e+02
137             	3.18632384e+02
138             	3.18660354e+02
139             	3.18686798e+02
140             	3.18711532e+02
141             	3.18734492e+02
142             	3.18755704e+02
143             	3.18775800e+02
144             	3.18795329e+02
145             	3.18815075e+02
146             	3.18835439e+02
147             	3.18856765e+02
148             	3.18878581e+02
149             	3.18900574e+02
150             	3.18921996e+02
151             	3.18942449e+02
152             	3.18961483e+02
153             	3.18978971e+02
154             	3.18994775e+02
155             	3.19009147e+02
156             	3.19022401e+02
157             	3.19035159e+02
158             	3.19048093e+02
159             	3.19061442e+02
160             	3.19075402e+02
161             	3.19089808e+02
162             	3.19104486e+02
163             	3.19119140e+02
164             	3.19133379e+02
165             	3.19147041e+02
166             	3.19159993e+02
167             	3.19172007e+02
168             	3.19183009e+02
169             	3.19193061e+02
170             	3.19202231e+02
171             	3.19210628e+02
172             	3.19218412e+02
173             	3.19225925e+02
174             	3.19233472e+02
175             	3.19241273e+02
176             	3.19249505e+02
177             	3.19258165e+02
178             	3.19266997e+02
179             	3.19275608e+02
180             	3.19283666e+02
181             	3.19291076e+02
182             	3.19297723e+02
183             	3.19303587e+02
184             	3.19308718e+02
185             	3.19313231e+02
186             	3.19317358e+02
187             	3.19321436e+02
188             	3.19325726e+02
189             	3.19330410e+02
190             	3.19335461e+02
191             	3.19340534e+02
192             	3.19345361e+02
193             	3.19349754e+02
194             	3.19353609e+02
195             	3.19356841e+02
196             	3.19359455e+02
197             	3.19361556e+02
198             	3.19363355e+02
199             	3.19365046e+02
200             	3.19366781e+02
201             	3.19368725e+02
202             	3.19370920e+02
203             	3.19373264e+02
204             	3.19375465e+02
205             	3.19377579e+02
206             	3.19379394e+02
207             	3.19380702e+02
208             	3.19381477e+02
209             	3.19381767e+02
210             	3.19381697e+02
211             	3.19381426e+02
212             	3.19381176e+02
213             	3.19381073e+02
214             	3.19381258e+02
215             	3.19381546e+02
216             	3.19381921e+02
217             	3.19382426e+02
218             	3.19382931e+02
219             	3.19383263e+02
220             	3.19383200e+02
221             	3.19382792e+02
222             	3.19381942e+02
223             	3.19380726e+02
224             	3.19379206e+02
225             	3.19377442e+02
226             	3.19375484e+02
227             	3.19373473e+02
228             	3.19371492e+02
229             	3.19369587e+02
230             	3.19367788e+02
231             	3.19366022e+02
232             	3.19364185e+02
233             	3.19362246e+02
234             	3.19360202e+02
235             	3.19358058e+02
236             	3.19355854e+02
237             	3.19353656e+02
238             	3.19351520e+02
239             	3.19349488e+02
240             	3.19347605e+02
241             	3.19345873e+02
242             	3.19344199e+02
243             	3.19342511e+02
244             	3.19340749e+02
245             	3.19338819e+02
246             	3.19336670e+02
247             	3.19334276e+02
248             	3.19331633e+02
249             	3.19328754e+02
250             	3.19325665e+02
251             	3.19322406e+02
252             	3.19319049e+02
253             	3.19315671e+02
254             	3.19312320e+02
255             	3.19309043e+02
256             	3.19305868e+02
257             	3.19302805e+02
258             	3.19299852e+02
259             	3.19296989e+02
260             	3.19294191e+02
261             	3.19291438e+02
262             	3.19288708e+02
263             	3.19285957e+02
264             	3.19283165e+02
265             	3.19280320e+02
266             	3.19277415e+02
267             	3.19274449e+02
268             	3.19271429e+02
269             	3.19268362e+02
270             	3.19265251e+02
271             	3.19262093e+02
272             	3.19258877e+02
273             	3.19255601e+02
274             	3.19252246e+02
275             	3.19248864e+02
276             	3.19245451e+02
277             	3.19242034e+02
278             	3.19238652e+02
279             	3.19235329e+02
280             	3.19232093e+02
281             	3.19228950e+02
282             	3.19225891e+02
283             	3.19222846e+02
284             	3.19219776e+02
285             	3.19216628e+02
286             	3.19213364e+02
287             	3.19209993e+02
288             	3.19206555e+02
289             	3.19203058e+02
290             	3.19199582e+02
291             	3.19196164e+02
292             	3.19192851e+02
293             	3.19189633e+02
294             	3.19186535e+02
295             	3.19183537e+02
296             	3.19180590e+02
297             	3.19177645e+02
298             	3.19174684e+02
299             	3.19171660e+02
300             	3.19168543e+02
301             	3.19165329e+02
302             	3.19162041e+02
303             	3.19158713e+02
304             	3.19155387e+02
305             	3.19152085e+02
306             	3.19148840e+02
307             	3.19145689e+02
308             	3.19142637e+02
309             	3.19139674e+02
310             	3.19136788e+02
311             	3.19133965e+02
312             	3.19131154e+02
313             	3.19128342e+02
314             	3.19125492e+02
315             	3.19122587e+02
316             	3.19119625e+02
317             	3.19116606e+02
318             	3.19113545e+02
319             	3.19110475e+02
320             	3.19107431e+02
321             	3.19104416e+02
322             	3.19101437e+02
323             	3.19098511e+02
324             	3.19095669e+02
325             	3.19092910e+02
326             	3.19090228e+02
327             	3.19087615e+02
328             	3.19085055e+02
329             	3.19082517e+02
330             	3.19079964e+02
331             	3.19077372e+02
332             	3.19074721e+02
333             	3.19072009e+02
334             	3.19069242e+02
335             	3.19066436e+02
336             	3.19063638e+02
337             	3.19060887e+02
338             	3.19058213e+02
339             	3.19055634e+02
340             	3.19053156e+02
341             	3.19050765e+02
342             	3.19048432e+02
343             	3.19046111e+02
344             	3.19043791e+02
345             	3.19041456e+02
346             	3.19039098e+02
347             	3.19036702e+02
348             	3.19034282e+02
349             	3.19031849e+02
350             	3.19029409e+02
351             	3.19026971e+02
352             	3.19024545e+02
353             	3.19022137e+02
354             	3.19019777e+02
355             	3.19017477e+02
356             	3.19015253e+02
357             	3.19013108e+02
358             	3.19011035e+02
359             	3.19008999e+02
360             	3.19006965e+02
361             	3.19004910e+02
362             	3.19002809e+02
363             	3.19000652e+02
364             	3.18998454e+02
365             	3.18996243e+02
366             	3.18994062e+02
367             	3.18991926e+02
368             	3.18989859e+02
369             	3.18987868e+02
370             	3.18985951e+02
371             	3.18984093e+02
372             	3.18982269e+02
373             	3.18980458e+02
374             	3.18978641e+02
375             	3.18976808e+02
376             	3.18974951e+02
377             	3.18973071e+02
378             	3.18971165e+02
379             	3.18969245e+02
380             	3.18967327e+02
381             	3.18965444e+02
382             	3.18963615e+02
383             	3.18961862e+02
384             	3.18960187e+02
385             	3.18958588e+02
386             	3.18957029e+02
387             	3.18955488e+02
388             	3.18953925e+02
389             	3.18952312e+02
390             	3.18950636e+02
391             	3.18948916e+02
392             	3.18947174e+02
393             	3.18945451e+02
394             	3.18943786e+02
395             	3.18942209e+02
396             	3.18940737e+02
397             	3.18939354e+02
398             	3.18938014e+02
399             	3.18936697e+02
400             	3.18935356e+02
401             	3.18933957e+02
402             	3.18932483e+02
403             	3.18930945e+02
404             	3.18929375e+02
405             	3.18927809e+02
406             	3.18926286e+02
407             	3.18924842e+02
408             	3.18923503e+02
409             	3.18922264e+02
410             	3.18921088e+02
411             	3.18919944e+02
412             	3.18918803e+02
413             	3.18917624e+02
414             	3.18916377e+02
415             	3.18915063e+02
416             	3.18913681e+02
417             	3.18912277e+02
418             	3.18910887e+02
419             	3.18909572e+02
420             	3.18908368e+02
421             	3.18907289e+02
422             	3.18906294e+02
423             	3.18905359e+02
424             	3.18904416e+02
425             	3.18903421e+02
426             	3.18902330e+02
427             	3.18901146e+02
428             	3.18899887e+02
429             	3.18898593e+02
430             	3.18897320e+02
431             	3.18896111e+02
432             	3.18895002e+02
433             	3.18893989e+02
434             	3.18893069e+02
435             	3.18892244e+02
436             	3.18891461e+02
437             	3.18890710e+02
438             	3.18889946e+02
439             	3.18889142e+02
440             	3.18888269e+02
441             	3.18887318e+02
442             	3.18886310e+02
443             	3.18885258e+02
444             	3.18884182e+02
445             	3.18883111e+02
446             	3.18882071e+02
447             	3.18881083e+02
448             	3.18880163e+02
449             	3.18879318e+02
450             	3.18878533e+02
451             	3.18877797e+02
452             	3.18877091e+02
453             	3.18876408e+02
454             	3.18875746e+02
455             	3.18875094e+02
456             	3.18874439e+02
457             	3.18873787e+02
458             	3.18873128e+02
459             	3.18872453e+02
460             	3.18871766e+02
461             	3.18871056e+02
462             	3.18870321e+02
463             	3.18869567e+02
464             	3.18868796e+02
465             	3.18868023e+02
466             	3.18867258e+02
467             	3.18866514e+02
468             	3.18865815e+02
469             	3.18865178e+02
470             	3.18864608e+02
471             	3.18864105e+02
472             	3.18863650e+02
473             	3.18863210e+02
474             	3.18862765e+02
475             	3.18862294e+02
476             	3.18861787e+02
477             	3.18861243e+02
478             	3.18860664e+02
479             	3.18860055e+02
480             	3.18859429e+02
481             	3.18858811e+02
482             	3.18858217e+02
483             	3.18857661e+02
484             	3.18857143e+02
485             	3.18856659e+02
486             	3.18856200e+02
487             	3.18855756e+02
488             	3.18855322e+02
489             	3.18854893e+02
490             	3.18854473e+02
491             	3.18854063e+02
492             	3.18853667e+02
493             	3.18853289e+02
494             	3.18852928e+02
495             	3.18852577e+02
496             	3.18852231e+02
497             	3.18851879e+02
498             	3.18851514e+02
499             	3.18851130e+02
500             	3.18850728e+02
501             	3.18850318e+02
502             	3.18849907e+02
503             	3.18849503e+02
504             	3.18849114e+02
505             	3.18848742e+02
506             	3.18848386e+02
507             	3.18848045e+02
508             	3.18847727e+02
509             	3.18847423e+02
510             	3.18847135e+02
511             	3.18846861e+02
512             	3.18846604e+02
513             	3.18846363e+02
514             	3.18846136e+02
515             	3.18845923e+02
516             	3.18845710e+02
517             	3.18845501e+02
518             	3.18845287e+02
519             	3.18845064e+02
520             	3.18844830e+02
521             	3.18844587e+02
522             	3.18844329e+02
523             	3.18844061e+02
524             	3.18843785e+02
525             	3.18843509e+02
526             	3.18843245e+02
527             	3.18842994e+02
528             	3.18842760e+02
529             	3.18842547e+02
530             	3.18842357e+02
531             	3.18842190e+02
532             	3.18842041e+02
533             	3.18841909e+02
534             	3.18841789e+02
535             	3.18841674e+02
536             	3.18841560e+02
537             	3.18841442e+02
538             	3.18841317e+02
539             	3.18841185e+02
540             	3.18841040e+02
541             	3.18840884e+02
542             	3.18840720e+02
543             	3.18840550e+02
544             	3.18840380e+02
545             	3.18840218e+02
546             	3.18840068e+02
547             	3.18839935e+02
548             	3.18839823e+02
549             	3.18839732e+02
550             	3.18839662e+02
551             	3.18839608e+02
552             	3.18839564e+02
553             	3.18839520e+02
554             	3.18839471e+02
555             	3.18839411e+02
556             	3.18839336e+02
557             	3.18839247e+02
558             	3.18839147e+02
559             	3.18839052e+02
560             	3.18838968e+02
561             	3.18838903e+02
562             	3.18838863e+02
563             	3.18838844e+02
564             	3.18838840e+02
565             	3.18838840e+02
566             	3.18838840e+02
567             	3.18838834e+02
568             	3.18838821e+02
569             	3.18838803e+02
570             	3.18838783e+02
571             	3.18838763e+02
572             	3.18838744e+02
573             	3.18838728e+02
574             	3.18838715e+02
575             	3.18838706e+02
576             	3.18838701e+02
577             	3.18838697e+02
578             	3.18838696e+02
579             	3.18838694e+02
580             	3.18838693e+02
581             	3.18838695e+02
582             	3.18838701e+02
583             	3.18838713e+02
584             	3.18838735e+02
585             	3.18838768e+02
586             	3.18838813e+02
587             	3.18838866e+02
588             	3.18838923e+02
589             	3.18838982e+02
590             	3.18839041e+02
591             	3.18839098e+02
592             	3.18839152e+02
593             	3.18839202e+02
594             	3.18839251e+02
595             	3.18839298e+02
596             	3.18839344e+02
597             	3.18839390e+02
598             	3.18839435e+02
599             	3.18839485e+02
600             	3.18839541e+02
601             	3.18839605e+02
602             	3.18839677e+02
603             	3.18839756e+02
604             	3.18839842e+02
605             	3.18839935e+02
606             	3.18840033e+02
607             	3.18840134e+02
608             	3.18840237e+02
609             	3.18840336e+02
610             	3.18840434e+02
611             	3.18840530e+02
612             	3.18840623e+02
613             	3.18840712e+02
614             	3.18840797e+02
615             	3.18840884e+02
616             	3.18840973e+02
617             	3.18841067e+02
618             	3.18841167e+02
619             	3.18841272e+02
620             	3.18841383e+02
621             	3.18841499e+02
