# Region        : cellZone component_0
# Cells         : 132
# Volume        : 1.68101657e-01
# Time          	volAverage(T)
1               	3.01544768e+02
2               	3.03071157e+02
3               	3.04502930e+02
4               	3.05881109e+02
5               	3.07234429e+02
6               	3.08569262e+02
7               	3.09888662e+02
8               	3.11198055e+02
9               	3.12502994e+02
10              	3.13794366e+02
11              	3.15068381e+02
12              	3.16323623e+02
13              	3.17560398e+02
14              	3.18763751e+02
15              	3.19955858e+02
16              	3.21129738e+02
17              	3.22307645e+02
18              	3.23481836e+02
19              	3.24649713e+02
20              	3.25813972e+02
21              	3.26966114e+02
22              	3.28113854e+02
23              	3.29262105e+02
24              	3.30403274e+02
25              	3.31535254e+02
26              	3.32665196e+02
27              	3.33792618e+02
28              	3.34895694e+02
29              	3.35990884e+02
30              	3.37094918e+02
31              	3.38155341e+02
32              	3.39214214e+02
33              	3.40254953e+02
34              	3.41262888e+02
35              	3.42257397e+02
36              	3.43233846e+02
37              	3.44190187e+02
38              	3.45084402e+02
39              	3.45938591e+02
40              	3.46792367e+02
41              	3.47654540e+02
42              	3.48515453e+02
43              	3.49390440e+02
44              	3.50261842e+02
45              	3.51141715e+02
46              	3.52007261e+02
47              	3.52878055e+02
48              	3.53732494e+02
49              	3.54584247e+02
50              	3.55421525e+02
51              	3.56246855e+02
52              	3.57065608e+02
53              	3.57859301e+02
54              	3.58608770e+02
55              	3.59344992e+02
56              	3.60065520e+02
57              	3.60774348e+02
58              	3.61429585e+02
59              	3.62072887e+02
60              	3.62713046e+02
61              	3.63330756e+02
62              	3.63930175e+02
63              	3.64510421e+02
64              	3.65086623e+02
65              	3.65678472e+02
66              	3.66271138e+02
67              	3.66831111e+02
68              	3.67357867e+02
69              	3.67849281e+02
70              	3.68311179e+02
71              	3.68756903e+02
72              	3.69203581e+02
73              	3.69660369e+02
74              	3.70112828e+02
75              	3.70548794e+02
76              	3.70993252e+02
77              	3.71441997e+02
78              	3.71893596e+02
79              	3.72354715e+02
80              	3.72832163e+02
81              	3.73275944e+02
82              	3.73718494e+02
83              	3.74160100e+02
84              	3.74593536e+02
85              	3.75007353e+02
86              	3.75409336e+02
87              	3.75796737e+02
88              	3.76180099e+02
89              	3.76558553e+02
90              	3.76932663e+02
91              	3.77304865e+02
92              	3.77689374e+02
93              	3.78074623e+02
94              	3.78468400e+02
95              	3.78856632e+02
96              	3.79248565e+02
97              	3.79629576e+02
98              	3.79992252e+02
99              	3.80358615e+02
100             	3.80711289e+02
101             	3.81042794e+02
102             	3.81358032e+02
103             	3.81668566e+02
104             	3.81975750e+02
105             	3.82276608e+02
106             	3.82575729e+02
107             	3.82887338e+02
108             	3.83205202e+02
109             	3.83519881e+02
110             	3.83833223e+02
111             	3.84135126e+02
112             	3.84409187e+02
113             	3.84676939e+02
114             	3.84943207e+02
115             	3.85198871e+02
116             	3.85441335e+02
117             	3.85681494e+02
118             	3.85928063e+02
119             	3.86171262e+02
120             	3.86429480e+02
121             	3.86680653e+02
122             	3.86938945e+02
123             	3.87201685e+02
124             	3.87463710e+02
125             	3.87705422e+02
126             	3.87933113e+02
127             	3.88134409e+02
128             	3.88332195e+02
129             	3.88522678e+02
130             	3.88703865e+02
131             	3.88876467e+02
132             	3.89042492e+02
133             	3.89210813e+02
134             	3.89388562e+02
135             	3.89578639e+02
136             	3.89765288e+02
137             	3.89955005e+02
138             	3.90154684e+02
139             	3.90359045e+02
140             	3.90560154e+02
141             	3.90753835e+02
142             	3.90914889e+02
143             	3.91070195e+02
144             	3.91219993e+02
145             	3.91358897e+02
146             	3.91488106e+02
147             	3.91610348e+02
148             	3.91728735e+02
149             	3.91847410e+02
150             	3.91971568e+02
151             	3.92099579e+02
152             	3.92235307e+02
153             	3.92377520e+02
154             	3.92523546e+02
155             	3.92664612e+02
156             	3.92802263e+02
157             	3.92932896e+02
158             	3.93055312e+02
159             	3.93172037e+02
160             	3.93286529e+02
161             	3.93394886e+02
162             	3.93496633e+02
163             	3.93597627e+02
164             	3.93704254e+02
165             	3.93824753e+02
166             	3.93942865e+02
167             	3.94063114e+02
168             	3.94166707e+02
169             	3.94269944e+02
170             	3.94377449e+02
171             	3.94481031e+02
172             	3.94574043e+02
173             	3.94660531e+02
174             	3.94741107e+02
175             	3.94824855e+02
176             	3.94907707e+02
177             	3.94993656e+02
178             	3.95085412e+02
179             	3.95182458e+02
180             	3.95285116e+02
181             	3.95386319e+02
182             	3.95488243e+02
183             	3.95585312e+02
184             	3.95676803e+02
185             	3.95762397e+02
186             	3.95843105e+02
187             	3.95916918e+02
188             	3.95987328e+02
189             	3.96057709e+02
190             	3.96128728e+02
191             	3.96198509e+02
192             	3.96269530e+02
193             	3.96342783e+02
194             	3.96417309e+02
195             	3.96492581e+02
196             	3.96566153e+02
197             	3.96636735e+02
198             	3.96705815e+02
199             	3.96772817e+02
200             	3.96837114e+02
201             	3.96899954e+02
202             	3.96961586e+02
203             	3.97022188e+02
204             	3.97080864e+02
205             	3.97140125e+02
206             	3.97198219e+02
207             	3.97256172e+02
208             	3.97314587e+02
209             	3.97373077e+02
210             	3.97430648e+02
211             	3.97488098e+02
212             	3.97543640e+02
213             	3.97597205e+02
214             	3.97645553e+02
215             	3.97694428e+02
216             	3.97736702e+02
217             	3.97779763e+02
218             	3.97822110e+02
219             	3.97862944e+02
220             	3.97902832e+02
221             	3.97942912e+02
222             	3.97986008e+02
223             	3.98027746e+02
224             	3.98071952e+02
225             	3.98117074e+02
226             	3.98162459e+02
227             	3.98206906e+02
228             	3.98250624e+02
229             	3.98296158e+02
230             	3.98339629e+02
231             	3.98380802e+02
232             	3.98418641e+02
233             	3.98454314e+02
234             	3.98490711e+02
235             	3.98527749e+02
236             	3.98562320e+02
237             	3.98597620e+02
238             	3.98632164e+02
239             	3.98667379e+02
240             	3.98702332e+02
241             	3.98731824e+02
242             	3.98763373e+02
243             	3.98794721e+02
244             	3.98824448e+02
245             	3.98853225e+02
246             	3.98882116e+02
247             	3.98911543e+02
248             	3.98941988e+02
249             	3.98972860e+02
250             	3.99003353e+02
251             	3.99033295e+02
252             	3.99062132e+02
253             	3.99091324e+02
254             	3.99118527e+02
255             	3.99144135e+02
256             	3.99169104e+02
257             	3.99194548e+02
258             	3.99218450e+02
259             	3.99241154e+02
260             	3.99261655e+02
261             	3.99280896e+02
262             	3.99300600e+02
263             	3.99321737e+02
264             	3.99345896e+02
265             	3.99370792e+02
266             	3.99395823e+02
267             	3.99419596e+02
268             	3.99445129e+02
269             	3.99471289e+02
270             	3.99497292e+02
271             	3.99523281e+02
272             	3.99542872e+02
273             	3.99562958e+02
274             	3.99580476e+02
275             	3.99596595e+02
276             	3.99614616e+02
277             	3.99631619e+02
278             	3.99646228e+02
279             	3.99660262e+02
280             	3.99676022e+02
281             	3.99692655e+02
282             	3.99709844e+02
283             	3.99726697e+02
284             	3.99743072e+02
285             	3.99759739e+02
286             	3.99776853e+02
287             	3.99793519e+02
288             	3.99810340e+02
289             	3.99827429e+02
290             	3.99845139e+02
291             	3.99861857e+02
292             	3.99878125e+02
293             	3.99894262e+02
294             	3.99910371e+02
295             	3.99926522e+02
296             	3.99942505e+02
297             	3.99958051e+02
298             	3.99973014e+02
299             	3.99987323e+02
300             	4.00001064e+02
301             	4.00014164e+02
302             	4.00026491e+02
303             	4.00038182e+02
304             	4.00049268e+02
305             	4.00059744e+02
306             	4.00070758e+02
307             	4.00081449e+02
308             	4.00091918e+02
309             	4.00102355e+02
310             	4.00112847e+02
311             	4.00123319e+02
312             	4.00133725e+02
313             	4.00144368e+02
314             	4.00156421e+02
315             	4.00168552e+02
316             	4.00181142e+02
317             	4.00194686e+02
318             	4.00208594e+02
319             	4.00222554e+02
320             	4.00236535e+02
321             	4.00250366e+02
322             	4.00263631e+02
323             	4.00276557e+02
324             	4.00288528e+02
325             	4.00300564e+02
326             	4.00312378e+02
327             	4.00323209e+02
328             	4.00333632e+02
329             	4.00343599e+02
330             	4.00353184e+02
331             	4.00362545e+02
332             	4.00371812e+02
333             	4.00381029e+02
334             	4.00390290e+02
335             	4.00399597e+02
336             	4.00409015e+02
337             	4.00418497e+02
338             	4.00427978e+02
339             	4.00437593e+02
340             	4.00449190e+02
341             	4.00460105e+02
342             	4.00470760e+02
343             	4.00481486e+02
344             	4.00492152e+02
345             	4.00502617e+02
346             	4.00512718e+02
347             	4.00522216e+02
348             	4.00531996e+02
349             	4.00541705e+02
350             	4.00551349e+02
351             	4.00561022e+02
352             	4.00570869e+02
353             	4.00580954e+02
354             	4.00591364e+02
355             	4.00602183e+02
356             	4.00613264e+02
357             	4.00624814e+02
358             	4.00636798e+02
359             	4.00649024e+02
360             	4.00661103e+02
361             	4.00672985e+02
362             	4.00684710e+02
363             	4.00696126e+02
364             	4.00707182e+02
365             	4.00717794e+02
366             	4.00727973e+02
367             	4.00737631e+02
368             	4.00746809e+02
369             	4.00755596e+02
370             	4.00763949e+02
371             	4.00771798e+02
372             	4.00779251e+02
373             	4.00786465e+02
374             	4.00793450e+02
375             	4.00800311e+02
376             	4.00806642e+02
377             	4.00812995e+02
378             	4.00819394e+02
379             	4.00825762e+02
380             	4.00832095e+02
381             	4.00838248e+02
382             	4.00844395e+02
383             	4.00850540e+02
384             	4.00857169e+02
385             	4.00864077e+02
386             	4.00871647e+02
387             	4.00879934e+02
388             	4.00888739e+02
389             	4.00898115e+02
390             	4.00907978e+02
391             	4.00918224e+02
392             	4.00928707e+02
393             	4.00939272e+02
394             	4.00949823e+02
395             	4.00960289e+02
396             	4.00970501e+02
397             	4.00980530e+02
398             	4.00990434e+02
399             	4.01000254e+02
400             	4.01008953e+02
401             	4.01017951e+02
402             	4.01026871e+02
403             	4.01035500e+02
404             	4.01044413e+02
405             	4.01052666e+02
406             	4.01060649e+02
407             	4.01068548e+02
408             	4.01076442e+02
409             	4.01084372e+02
410             	4.01092310e+02
411             	4.01100263e+02
412             	4.01108235e+02
413             	4.01116195e+02
414             	4.01124137e+02
415             	4.01132006e+02
416             	4.01139737e+02
417             	4.01147377e+02
418             	4.01154882e+02
419             	4.01162178e+02
420             	4.01169386e+02
421             	4.01176355e+02
422             	4.01183149e+02
423             	4.01189836e+02
424             	4.01196445e+02
425             	4.01202976e+02
426             	4.01210099e+02
427             	4.01217208e+02
428             	4.01224315e+02
429             	4.01231567e+02
430             	4.01238977e+02
431             	4.01246528e+02
432             	4.01254199e+02
433             	4.01261965e+02
434             	4.01269830e+02
435             	4.01277797e+02
436             	4.01285945e+02
437             	4.01294359e+02
438             	4.01303006e+02
439             	4.01311860e+02
440             	4.01320854e+02
441             	4.01330003e+02
442             	4.01339002e+02
443             	4.01347936e+02
444             	4.01356747e+02
445             	4.01365392e+02
446             	4.01373833e+02
447             	4.01381637e+02
448             	4.01389305e+02
449             	4.01396765e+02
450             	4.01403873e+02
451             	4.01410660e+02
452             	4.01417221e+02
453             	4.01423622e+02
454             	4.01429887e+02
455             	4.01435976e+02
456             	4.01441719e+02
457             	4.01446343e+02
458             	4.01451047e+02
459             	4.01455866e+02
460             	4.01460233e+02
461             	4.01465427e+02
462             	4.01470098e+02
463             	4.01474693e+02
464             	4.01479510e+02
465             	4.01484579e+02
466             	4.01489852e+02
467             	4.01495267e+02
468             	4.01500771e+02
469             	4.01506320e+02
470             	4.01511892e+02
471             	4.01518257e+02
472             	4.01524390e+02
473             	4.01530488e+02
474             	4.01536702e+02
475             	4.01542985e+02
476             	4.01549283e+02
477             	4.01555466e+02
478             	4.01561435e+02
479             	4.01566894e+02
480             	4.01572546e+02
481             	4.01578395e+02
482             	4.01583917e+02
483             	4.01588870e+02
484             	4.01593177e+02
485             	4.01597093e+02
486             	4.01600717e+02
487             	4.01604126e+02
488             	4.01607341e+02
489             	4.01610472e+02
490             	4.01613532e+02
491             	4.01616433e+02
492             	4.01619198e+02
493             	4.01621913e+02
494             	4.01624754e+02
495             	4.01628369e+02
496             	4.01631874e+02
497             	4.01635518e+02
498             	4.01639865e+02
499             	4.01644500e+02
500             	4.01649381e+02
501             	4.01654531e+02
502             	4.01659912e+02
503             	4.01665439e+02
504             	4.01671039e+02
505             	4.01676668e+02
506             	4.01682330e+02
507             	4.01688025e+02
508             	4.01693761e+02
509             	4.01699602e+02
510             	4.01705581e+02
511             	4.01711757e+02
512             	4.01718138e+02
513             	4.01724637e+02
514             	4.01731428e+02
515             	4.01738503e+02
516             	4.01745812e+02
517             	4.01752679e+02
518             	4.01759557e+02
519             	4.01765850e+02
520             	4.01771824e+02
521             	4.01777469e+02
522             	4.01782584e+02
523             	4.01787193e+02
524             	4.01791432e+02
525             	4.01794897e+02
526             	4.01797623e+02
527             	4.01799847e+02
528             	4.01802027e+02
529             	4.01804214e+02
530             	4.01806226e+02
531             	4.01808153e+02
532             	4.01810333e+02
533             	4.01812967e+02
534             	4.01816493e+02
535             	4.01820081e+02
536             	4.01823986e+02
537             	4.01828362e+02
538             	4.01833063e+02
539             	4.01837983e+02
540             	4.01843064e+02
541             	4.01848110e+02
542             	4.01853040e+02
543             	4.01857800e+02
544             	4.01862357e+02
545             	4.01867422e+02
546             	4.01872852e+02
547             	4.01878633e+02
548             	4.01884782e+02
549             	4.01891237e+02
550             	4.01897630e+02
551             	4.01902851e+02
552             	4.01908152e+02
553             	4.01913282e+02
554             	4.01917944e+02
555             	4.01922071e+02
556             	4.01925883e+02
557             	4.01929382e+02
558             	4.01932698e+02
559             	4.01936239e+02
560             	4.01939444e+02
561             	4.01942341e+02
562             	4.01944937e+02
563             	4.01947065e+02
564             	4.01948921e+02
565             	4.01950710e+02
566             	4.01952330e+02
567             	4.01953813e+02
568             	4.01955249e+02
569             	4.01956756e+02
570             	4.01958446e+02
571             	4.01961421e+02
572             	4.01964139e+02
573             	4.01966889e+02
574             	4.01969913e+02
575             	4.01973167e+02
576             	4.01977024e+02
577             	4.01981009e+02
578             	4.01985100e+02
579             	4.01989309e+02
580             	4.01993590e+02
581             	4.01997779e+02
582             	4.02001343e+02
583             	4.02005443e+02
584             	4.02009811e+02
585             	4.02014307e+02
586             	4.02018981e+02
587             	4.02023957e+02
588             	4.02029280e+02
589             	4.02034770e+02
590             	4.02040385e+02
591             	4.02046072e+02
592             	4.02051797e+02
593             	4.02057507e+02
594             	4.02063046e+02
595             	4.02068431e+02
596             	4.02073624e+02
597             	4.02078572e+02
598             	4.02083249e+02
599             	4.02087610e+02
600             	4.02091306e+02
601             	4.02095007e+02
602             	4.02098528e+02
603             	4.02101790e+02
604             	4.02104834e+02
605             	4.02107743e+02
606             	4.02110591e+02
607             	4.02113423e+02
608             	4.02116267e+02
609             	4.02119133e+02
610             	4.02121953e+02
611             	4.02124911e+02
612             	4.02127671e+02
613             	4.02130277e+02
614             	4.02132825e+02
615             	4.02135322e+02
616             	4.02137720e+02
617             	4.02140025e+02
618             	4.02142247e+02
619             	4.02144386e+02
620             	4.02146461e+02
621             	4.02148523e+02
