# Region        : cellZone component_0
# Cells         : 24
# Volume        : 3.04981403e-02
# Time          	volAverage(T)
1               	3.13590452e+02
2               	3.26902786e+02
3               	3.38099979e+02
4               	3.48203654e+02
5               	3.57940668e+02
6               	3.67486282e+02
7               	3.76839919e+02
8               	3.85951450e+02
9               	3.94805262e+02
10              	4.03460239e+02
11              	4.11935685e+02
12              	4.20328049e+02
13              	4.28606536e+02
14              	4.36880010e+02
15              	4.44953762e+02
16              	4.52965556e+02
17              	4.60679647e+02
18              	4.67991845e+02
19              	4.74866260e+02
20              	4.81557517e+02
21              	4.87882836e+02
22              	4.93922318e+02
23              	4.99840190e+02
24              	5.05579743e+02
25              	5.10955617e+02
26              	5.15994137e+02
27              	5.20761167e+02
28              	5.25369709e+02
29              	5.29828726e+02
30              	5.34207634e+02
31              	5.38533578e+02
32              	5.42946710e+02
33              	5.47535776e+02
34              	5.52096029e+02
35              	5.56589392e+02
36              	5.60832844e+02
37              	5.64773605e+02
38              	5.68453412e+02
39              	5.71609623e+02
40              	5.74484209e+02
41              	5.76939164e+02
42              	5.79043979e+02
43              	5.80718366e+02
44              	5.82076121e+02
45              	5.83117478e+02
46              	5.83874306e+02
47              	5.84372733e+02
48              	5.84727813e+02
49              	5.85090390e+02
50              	5.85498496e+02
51              	5.85610383e+02
52              	5.85906155e+02
53              	5.86186535e+02
54              	5.86392382e+02
55              	5.86613255e+02
56              	5.86695364e+02
57              	5.86756789e+02
58              	5.86812755e+02
59              	5.86763507e+02
60              	5.86600161e+02
61              	5.86437645e+02
62              	5.86373293e+02
63              	5.86355352e+02
64              	5.86506853e+02
65              	5.86753445e+02
66              	5.86925154e+02
67              	5.86916601e+02
68              	5.86828078e+02
69              	5.86620907e+02
70              	5.86384165e+02
71              	5.86172972e+02
72              	5.86026237e+02
73              	5.85937016e+02
74              	5.85771211e+02
75              	5.85624441e+02
76              	5.85628022e+02
77              	5.85602216e+02
78              	5.85645097e+02
79              	5.85700512e+02
80              	5.85882737e+02
81              	5.86116043e+02
82              	5.86285666e+02
83              	5.86376820e+02
84              	5.86386634e+02
85              	5.86343528e+02
86              	5.86269021e+02
87              	5.85949347e+02
88              	5.85531992e+02
89              	5.85135137e+02
90              	5.84748070e+02
91              	5.84428628e+02
92              	5.83988666e+02
93              	5.83807059e+02
94              	5.83788690e+02
95              	5.83988180e+02
96              	5.84210654e+02
97              	5.84303160e+02
98              	5.84350200e+02
99              	5.84545113e+02
100             	5.84572308e+02
101             	5.84456502e+02
102             	5.84111624e+02
103             	5.83876267e+02
104             	5.83585970e+02
105             	5.83194958e+02
106             	5.83066369e+02
107             	5.82895081e+02
108             	5.82977458e+02
109             	5.82968976e+02
110             	5.82729059e+02
111             	5.82335639e+02
112             	5.81904803e+02
113             	5.81467084e+02
114             	5.81113673e+02
115             	5.80649436e+02
116             	5.80371447e+02
117             	5.79979124e+02
118             	5.79598890e+02
119             	5.79290444e+02
120             	5.78868440e+02
121             	5.78388864e+02
122             	5.78296278e+02
123             	5.77757222e+02
124             	5.76856233e+02
125             	5.76230915e+02
126             	5.75082949e+02
127             	5.74453720e+02
128             	5.74005524e+02
129             	5.73891026e+02
130             	5.73811445e+02
131             	5.74021668e+02
132             	5.74350776e+02
133             	5.74899588e+02
134             	5.75540092e+02
135             	5.76213138e+02
136             	5.76601628e+02
137             	5.77050425e+02
138             	5.77183542e+02
139             	5.76837837e+02
140             	5.76585109e+02
141             	5.76560137e+02
142             	5.76953730e+02
143             	5.77784903e+02
144             	5.78338606e+02
145             	5.78739329e+02
146             	5.78968182e+02
147             	5.78936198e+02
148             	5.79180700e+02
149             	5.79767234e+02
150             	5.80036270e+02
151             	5.79939193e+02
152             	5.79778882e+02
153             	5.79610599e+02
154             	5.79198018e+02
155             	5.78737655e+02
156             	5.78248681e+02
157             	5.77758438e+02
158             	5.77197932e+02
159             	5.76892940e+02
160             	5.76841988e+02
161             	5.77047510e+02
162             	5.76944470e+02
163             	5.76939032e+02
164             	5.76654755e+02
165             	5.76256242e+02
166             	5.76002109e+02
167             	5.76077539e+02
168             	5.76533060e+02
169             	5.77216429e+02
170             	5.78060504e+02
171             	5.78847711e+02
172             	5.79385634e+02
173             	5.79915118e+02
174             	5.80232265e+02
175             	5.80647857e+02
176             	5.81216830e+02
177             	5.81544922e+02
178             	5.81633791e+02
179             	5.81652378e+02
180             	5.81527681e+02
181             	5.81391069e+02
182             	5.81256260e+02
183             	5.81201234e+02
184             	5.81033848e+02
185             	5.80897050e+02
186             	5.80886078e+02
187             	5.81085882e+02
188             	5.81556285e+02
189             	5.82010732e+02
190             	5.82404019e+02
191             	5.82614251e+02
192             	5.82702890e+02
193             	5.82673161e+02
194             	5.82809608e+02
195             	5.82637404e+02
196             	5.82647266e+02
197             	5.82407433e+02
198             	5.81981692e+02
199             	5.81641933e+02
200             	5.81200182e+02
201             	5.80900237e+02
202             	5.80622058e+02
203             	5.80463140e+02
204             	5.80353360e+02
205             	5.80403550e+02
206             	5.80404546e+02
207             	5.80298590e+02
208             	5.80368178e+02
209             	5.80243477e+02
210             	5.80492512e+02
211             	5.80596212e+02
212             	5.80642947e+02
213             	5.80650104e+02
214             	5.80674419e+02
215             	5.80765881e+02
216             	5.80981903e+02
217             	5.81255085e+02
218             	5.81525973e+02
219             	5.81708953e+02
220             	5.81729115e+02
221             	5.81764678e+02
222             	5.81708220e+02
223             	5.81776727e+02
224             	5.81821881e+02
225             	5.81944399e+02
226             	5.82041190e+02
227             	5.82086683e+02
228             	5.82021605e+02
229             	5.82054055e+02
230             	5.82055474e+02
231             	5.82164477e+02
232             	5.82394030e+02
233             	5.82614190e+02
234             	5.82803743e+02
235             	5.82976325e+02
236             	5.83215107e+02
237             	5.83487913e+02
238             	5.83815857e+02
239             	5.84126303e+02
240             	5.84431551e+02
241             	5.84733704e+02
242             	5.85012611e+02
243             	5.85246080e+02
244             	5.85481954e+02
245             	5.85524114e+02
246             	5.85398471e+02
247             	5.85432832e+02
248             	5.85471823e+02
249             	5.85509432e+02
250             	5.85573541e+02
251             	5.85772913e+02
252             	5.85568600e+02
253             	5.85675167e+02
254             	5.85909451e+02
255             	5.85812920e+02
256             	5.85894808e+02
257             	5.86019184e+02
258             	5.86065695e+02
259             	5.86021432e+02
260             	5.85898056e+02
261             	5.85828278e+02
262             	5.85726171e+02
263             	5.85611908e+02
264             	5.85631575e+02
265             	5.85740460e+02
266             	5.85974816e+02
267             	5.86357772e+02
268             	5.86371428e+02
269             	5.86598877e+02
270             	5.86573532e+02
271             	5.86701194e+02
272             	5.86845119e+02
273             	5.86895074e+02
274             	5.86892034e+02
275             	5.86838223e+02
276             	5.86760386e+02
277             	5.86631855e+02
278             	5.86253864e+02
279             	5.86063573e+02
280             	5.86011966e+02
281             	5.86040026e+02
282             	5.86124113e+02
283             	5.86285358e+02
284             	5.86161871e+02
285             	5.86289442e+02
286             	5.86219457e+02
287             	5.86401878e+02
288             	5.86380198e+02
289             	5.86606274e+02
290             	5.86596192e+02
291             	5.86829055e+02
292             	5.86833257e+02
293             	5.86985755e+02
294             	5.87227424e+02
295             	5.87145510e+02
296             	5.87196659e+02
297             	5.87177443e+02
298             	5.87212503e+02
299             	5.87291226e+02
300             	5.87410565e+02
301             	5.87532345e+02
302             	5.87320885e+02
303             	5.87389227e+02
304             	5.87244780e+02
305             	5.87425183e+02
306             	5.87278519e+02
307             	5.87337934e+02
308             	5.87205798e+02
309             	5.87239654e+02
310             	5.87274891e+02
311             	5.87266142e+02
312             	5.86993812e+02
313             	5.86894705e+02
314             	5.86883605e+02
315             	5.86922570e+02
316             	5.87042966e+02
317             	5.86873127e+02
318             	5.86998286e+02
319             	5.86891624e+02
320             	5.87038544e+02
321             	5.86926046e+02
322             	5.87017465e+02
323             	5.86894426e+02
324             	5.86883244e+02
325             	5.86678517e+02
326             	5.86629364e+02
327             	5.86684808e+02
328             	5.86787691e+02
329             	5.86943187e+02
330             	5.86815043e+02
331             	5.86961804e+02
332             	5.86859464e+02
333             	5.87033887e+02
334             	5.86926161e+02
335             	5.87080276e+02
336             	5.86958700e+02
337             	5.87041592e+02
338             	5.86910964e+02
339             	5.86956822e+02
340             	5.87078125e+02
341             	5.87207726e+02
342             	5.87024444e+02
343             	5.87008985e+02
344             	5.86995076e+02
345             	5.87097929e+02
346             	5.86961569e+02
347             	5.87073992e+02
348             	5.86933520e+02
349             	5.87072738e+02
350             	5.86922405e+02
351             	5.87055147e+02
352             	5.86920212e+02
353             	5.86997128e+02
354             	5.87163550e+02
355             	5.86974340e+02
356             	5.86979254e+02
357             	5.87079238e+02
358             	5.86892282e+02
359             	5.86914779e+02
360             	5.87046419e+02
361             	5.86883490e+02
362             	5.86929803e+02
363             	5.87083004e+02
364             	5.86910896e+02
365             	5.86986203e+02
366             	5.86821361e+02
367             	5.86905449e+02
368             	5.86727807e+02
369             	5.86801293e+02
370             	5.86642006e+02
371             	5.86742533e+02
372             	5.86602525e+02
373             	5.86707921e+02
374             	5.86587505e+02
375             	5.86701163e+02
376             	5.86585194e+02
377             	5.86695715e+02
378             	5.86578978e+02
379             	5.86687798e+02
380             	5.86573085e+02
381             	5.86666996e+02
382             	5.86551171e+02
383             	5.86617367e+02
384             	5.86505531e+02
385             	5.86620791e+02
386             	5.86499498e+02
387             	5.86604833e+02
388             	5.86477703e+02
389             	5.86631446e+02
390             	5.86483264e+02
391             	5.86608418e+02
392             	5.86463330e+02
393             	5.86578494e+02
394             	5.86451086e+02
395             	5.86571388e+02
396             	5.86459839e+02
397             	5.86567317e+02
398             	5.86466073e+02
399             	5.86576523e+02
400             	5.86476815e+02
401             	5.86578646e+02
402             	5.86475882e+02
403             	5.86617256e+02
404             	5.86502321e+02
405             	5.86619343e+02
406             	5.86502785e+02
407             	5.86632921e+02
408             	5.86511913e+02
409             	5.86642147e+02
410             	5.86510541e+02
411             	5.86637474e+02
412             	5.86496032e+02
413             	5.86619103e+02
414             	5.86489198e+02
415             	5.86604556e+02
416             	5.86490770e+02
417             	5.86617443e+02
418             	5.86511255e+02
419             	5.86627731e+02
420             	5.86526367e+02
421             	5.86635395e+02
422             	5.86526939e+02
423             	5.86636767e+02
424             	5.86523225e+02
425             	5.86646486e+02
426             	5.86526050e+02
427             	5.86652182e+02
428             	5.86527853e+02
429             	5.86659017e+02
430             	5.86533012e+02
431             	5.86675219e+02
432             	5.86547377e+02
433             	5.86666795e+02
434             	5.86548187e+02
435             	5.86673278e+02
436             	5.86562503e+02
437             	5.86683427e+02
438             	5.86579374e+02
439             	5.86704864e+02
440             	5.86600635e+02
441             	5.86731170e+02
442             	5.86624500e+02
443             	5.86755590e+02
444             	5.86645513e+02
445             	5.86775618e+02
446             	5.86658064e+02
447             	5.86782800e+02
448             	5.86659090e+02
449             	5.86780280e+02
450             	5.86650948e+02
451             	5.86766812e+02
452             	5.86635838e+02
453             	5.86751390e+02
454             	5.86623080e+02
455             	5.86736004e+02
456             	5.86611775e+02
457             	5.86727294e+02
458             	5.86604184e+02
459             	5.86718521e+02
460             	5.86594991e+02
461             	5.86708131e+02
462             	5.86583993e+02
463             	5.86697631e+02
464             	5.86573954e+02
465             	5.86690075e+02
466             	5.86567631e+02
467             	5.86684552e+02
468             	5.86564496e+02
469             	5.86686686e+02
470             	5.86566627e+02
471             	5.86688346e+02
472             	5.86567736e+02
473             	5.86691215e+02
474             	5.86569757e+02
475             	5.86689629e+02
476             	5.86567879e+02
477             	5.86686020e+02
478             	5.86564941e+02
479             	5.86684193e+02
480             	5.86562231e+02
481             	5.86680061e+02
482             	5.86558111e+02
483             	5.86678871e+02
484             	5.86557724e+02
485             	5.86676736e+02
486             	5.86556360e+02
487             	5.86675556e+02
488             	5.86555514e+02
489             	5.86671503e+02
490             	5.86552112e+02
491             	5.86667240e+02
492             	5.86548910e+02
493             	5.86665782e+02
494             	5.86548625e+02
495             	5.86669609e+02
496             	5.86552395e+02
497             	5.86674584e+02
498             	5.86555821e+02
499             	5.86679627e+02
500             	5.86558138e+02
501             	5.86678705e+02
502             	5.86556516e+02
503             	5.86675304e+02
504             	5.86553836e+02
505             	5.86671677e+02
506             	5.86551757e+02
507             	5.86669164e+02
508             	5.86550493e+02
509             	5.86670792e+02
510             	5.86551761e+02
511             	5.86670242e+02
512             	5.86550145e+02
513             	5.86667791e+02
514             	5.86546628e+02
515             	5.86663009e+02
516             	5.86541605e+02
517             	5.86657175e+02
518             	5.86535400e+02
519             	5.86650057e+02
520             	5.86529213e+02
521             	5.86645869e+02
522             	5.86525615e+02
523             	5.86642518e+02
524             	5.86523104e+02
525             	5.86643916e+02
526             	5.86524579e+02
527             	5.86646011e+02
528             	5.86526520e+02
529             	5.86649216e+02
530             	5.86528955e+02
531             	5.86649104e+02
532             	5.86528561e+02
533             	5.86647288e+02
534             	5.86526494e+02
535             	5.86643395e+02
536             	5.86522955e+02
537             	5.86639401e+02
538             	5.86520619e+02
539             	5.86638666e+02
540             	5.86521075e+02
541             	5.86640540e+02
542             	5.86523242e+02
543             	5.86643401e+02
544             	5.86525093e+02
545             	5.86645145e+02
546             	5.86525319e+02
547             	5.86645127e+02
548             	5.86523998e+02
549             	5.86643444e+02
550             	5.86521900e+02
551             	5.86641111e+02
552             	5.86519812e+02
553             	5.86639282e+02
554             	5.86518675e+02
555             	5.86638153e+02
556             	5.86518404e+02
557             	5.86638142e+02
558             	5.86518994e+02
559             	5.86638994e+02
560             	5.86519949e+02
561             	5.86639720e+02
562             	5.86520451e+02
563             	5.86640309e+02
564             	5.86520567e+02
565             	5.86640394e+02
566             	5.86520180e+02
567             	5.86640220e+02
568             	5.86519457e+02
569             	5.86639587e+02
570             	5.86518463e+02
571             	5.86638833e+02
572             	5.86517512e+02
573             	5.86638062e+02
574             	5.86516842e+02
575             	5.86637334e+02
576             	5.86516496e+02
577             	5.86637129e+02
578             	5.86516822e+02
579             	5.86637520e+02
580             	5.86517605e+02
581             	5.86638257e+02
582             	5.86518486e+02
583             	5.86639082e+02
584             	5.86519146e+02
585             	5.86639600e+02
586             	5.86519305e+02
587             	5.86639680e+02
588             	5.86518881e+02
589             	5.86639230e+02
590             	5.86517938e+02
591             	5.86638373e+02
592             	5.86516712e+02
593             	5.86637294e+02
594             	5.86515475e+02
595             	5.86636283e+02
596             	5.86514449e+02
597             	5.86635324e+02
598             	5.86513636e+02
599             	5.86634506e+02
600             	5.86513021e+02
601             	5.86633686e+02
602             	5.86512370e+02
603             	5.86633212e+02
604             	5.86512051e+02
605             	5.86632937e+02
606             	5.86511940e+02
607             	5.86632823e+02
608             	5.86512006e+02
609             	5.86633316e+02
610             	5.86512567e+02
611             	5.86634167e+02
612             	5.86513342e+02
613             	5.86635351e+02
614             	5.86514234e+02
615             	5.86636270e+02
616             	5.86514915e+02
617             	5.86636930e+02
618             	5.86515355e+02
619             	5.86637057e+02
620             	5.86515444e+02
621             	5.86636866e+02
