# Region        : cellZone component_4
# Cells         : 64
# Volume        : 1.07036042e-01
# Time          	volAverage(T)
1               	3.00587209e+02
2               	3.01166488e+02
3               	3.01705056e+02
4               	3.02217212e+02
5               	3.02713587e+02
6               	3.03197453e+02
7               	3.03671237e+02
8               	3.04136281e+02
9               	3.04594688e+02
10              	3.05048843e+02
11              	3.05494976e+02
12              	3.05937557e+02
13              	3.06374036e+02
14              	3.06803443e+02
15              	3.07221878e+02
16              	3.07632334e+02
17              	3.08028473e+02
18              	3.08414739e+02
19              	3.08789462e+02
20              	3.09153059e+02
21              	3.09507883e+02
22              	3.09853968e+02
23              	3.10189951e+02
24              	3.10516488e+02
25              	3.10834526e+02
26              	3.11143950e+02
27              	3.11444822e+02
28              	3.11740171e+02
29              	3.12041388e+02
30              	3.12333759e+02
31              	3.12623698e+02
32              	3.12911088e+02
33              	3.13183437e+02
34              	3.13448730e+02
35              	3.13708006e+02
36              	3.13963212e+02
37              	3.14206813e+02
38              	3.14440146e+02
39              	3.14670465e+02
40              	3.14893923e+02
41              	3.15116405e+02
42              	3.15338996e+02
43              	3.15552510e+02
44              	3.15758930e+02
45              	3.15960995e+02
46              	3.16161331e+02
47              	3.16365694e+02
48              	3.16555854e+02
49              	3.16744756e+02
50              	3.16926272e+02
51              	3.17098309e+02
52              	3.17261561e+02
53              	3.17423256e+02
54              	3.17585184e+02
55              	3.17753252e+02
56              	3.17919612e+02
57              	3.18084550e+02
58              	3.18248298e+02
59              	3.18406874e+02
60              	3.18559554e+02
61              	3.18708178e+02
62              	3.18855021e+02
63              	3.19006773e+02
64              	3.19157415e+02
65              	3.19308935e+02
66              	3.19453967e+02
67              	3.19589808e+02
68              	3.19722252e+02
69              	3.19857406e+02
70              	3.19992481e+02
71              	3.20130529e+02
72              	3.20270074e+02
73              	3.20421401e+02
74              	3.20575132e+02
75              	3.20728387e+02
76              	3.20879218e+02
77              	3.21025614e+02
78              	3.21170915e+02
79              	3.21315042e+02
80              	3.21445208e+02
81              	3.21573702e+02
82              	3.21693605e+02
83              	3.21812904e+02
84              	3.21932181e+02
85              	3.22049359e+02
86              	3.22169748e+02
87              	3.22295635e+02
88              	3.22421868e+02
89              	3.22543375e+02
90              	3.22660922e+02
91              	3.22775523e+02
92              	3.22886678e+02
93              	3.22994312e+02
94              	3.23100257e+02
95              	3.23194375e+02
96              	3.23291473e+02
97              	3.23386278e+02
98              	3.23478595e+02
99              	3.23569806e+02
100             	3.23662560e+02
101             	3.23756605e+02
102             	3.23847826e+02
103             	3.23940782e+02
104             	3.24034698e+02
105             	3.24123044e+02
106             	3.24206826e+02
107             	3.24282141e+02
108             	3.24352405e+02
109             	3.24426471e+02
110             	3.24498407e+02
111             	3.24570179e+02
112             	3.24644659e+02
113             	3.24715997e+02
114             	3.24784062e+02
115             	3.24851814e+02
116             	3.24918901e+02
117             	3.24979448e+02
118             	3.25033547e+02
119             	3.25081120e+02
120             	3.25125429e+02
121             	3.25175819e+02
122             	3.25228339e+02
123             	3.25284525e+02
124             	3.25345695e+02
125             	3.25413702e+02
126             	3.25486642e+02
127             	3.25561186e+02
128             	3.25632413e+02
129             	3.25703437e+02
130             	3.25762974e+02
131             	3.25813078e+02
132             	3.25855929e+02
133             	3.25893816e+02
134             	3.25931558e+02
135             	3.25972231e+02
136             	3.26010263e+02
137             	3.26048765e+02
138             	3.26086631e+02
139             	3.26134682e+02
140             	3.26183274e+02
141             	3.26232806e+02
142             	3.26285852e+02
143             	3.26332531e+02
144             	3.26375321e+02
145             	3.26416542e+02
146             	3.26451015e+02
147             	3.26480513e+02
148             	3.26511482e+02
149             	3.26544344e+02
150             	3.26579284e+02
151             	3.26615079e+02
152             	3.26654711e+02
153             	3.26697835e+02
154             	3.26741230e+02
155             	3.26784432e+02
156             	3.26824978e+02
157             	3.26859413e+02
158             	3.26895038e+02
159             	3.26928429e+02
160             	3.26962052e+02
161             	3.26997538e+02
162             	3.27035425e+02
163             	3.27074376e+02
164             	3.27115422e+02
165             	3.27157984e+02
166             	3.27200419e+02
167             	3.27242168e+02
168             	3.27283571e+02
169             	3.27321034e+02
170             	3.27357445e+02
171             	3.27387998e+02
172             	3.27418485e+02
173             	3.27451937e+02
174             	3.27486888e+02
175             	3.27521551e+02
176             	3.27557885e+02
177             	3.27595558e+02
178             	3.27633766e+02
179             	3.27672237e+02
180             	3.27708794e+02
181             	3.27742632e+02
182             	3.27771556e+02
183             	3.27799313e+02
184             	3.27821126e+02
185             	3.27843297e+02
186             	3.27866912e+02
187             	3.27889826e+02
188             	3.27911113e+02
189             	3.27934120e+02
190             	3.27959577e+02
191             	3.27989899e+02
192             	3.28021861e+02
193             	3.28054473e+02
194             	3.28087675e+02
195             	3.28117076e+02
196             	3.28146297e+02
197             	3.28173006e+02
198             	3.28197038e+02
199             	3.28218985e+02
200             	3.28239563e+02
201             	3.28259990e+02
202             	3.28280473e+02
203             	3.28303108e+02
204             	3.28328175e+02
205             	3.28355190e+02
206             	3.28383369e+02
207             	3.28411053e+02
208             	3.28438391e+02
209             	3.28465119e+02
210             	3.28490618e+02
211             	3.28514602e+02
212             	3.28536884e+02
213             	3.28557280e+02
214             	3.28576766e+02
215             	3.28596207e+02
216             	3.28615993e+02
217             	3.28635606e+02
218             	3.28655258e+02
219             	3.28674879e+02
220             	3.28693956e+02
221             	3.28711123e+02
222             	3.28728506e+02
223             	3.28746162e+02
224             	3.28764406e+02
225             	3.28783060e+02
226             	3.28802588e+02
227             	3.28823163e+02
228             	3.28844132e+02
229             	3.28865005e+02
230             	3.28885099e+02
231             	3.28904866e+02
232             	3.28924076e+02
233             	3.28942139e+02
234             	3.28959520e+02
235             	3.28976103e+02
236             	3.28991574e+02
237             	3.29005825e+02
238             	3.29019082e+02
239             	3.29031915e+02
240             	3.29043086e+02
241             	3.29054006e+02
242             	3.29065325e+02
243             	3.29077165e+02
244             	3.29089992e+02
245             	3.29103417e+02
246             	3.29117075e+02
247             	3.29131009e+02
248             	3.29145212e+02
249             	3.29159308e+02
250             	3.29172872e+02
251             	3.29185574e+02
252             	3.29197892e+02
253             	3.29209594e+02
254             	3.29221175e+02
255             	3.29232955e+02
256             	3.29245016e+02
257             	3.29257233e+02
258             	3.29269363e+02
259             	3.29281629e+02
260             	3.29293526e+02
261             	3.29304391e+02
262             	3.29314829e+02
263             	3.29324903e+02
264             	3.29334849e+02
265             	3.29344663e+02
266             	3.29354447e+02
267             	3.29364183e+02
268             	3.29373928e+02
269             	3.29383837e+02
270             	3.29393816e+02
271             	3.29403766e+02
272             	3.29413775e+02
273             	3.29423904e+02
274             	3.29434160e+02
275             	3.29444265e+02
276             	3.29453997e+02
277             	3.29462926e+02
278             	3.29471165e+02
279             	3.29478905e+02
280             	3.29485936e+02
281             	3.29492606e+02
282             	3.29498480e+02
283             	3.29504564e+02
284             	3.29510769e+02
285             	3.29517201e+02
286             	3.29523985e+02
287             	3.29531003e+02
288             	3.29538267e+02
289             	3.29545592e+02
290             	3.29552962e+02
291             	3.29560007e+02
292             	3.29566795e+02
293             	3.29573470e+02
294             	3.29580452e+02
295             	3.29587147e+02
296             	3.29593950e+02
297             	3.29600109e+02
298             	3.29605598e+02
299             	3.29611067e+02
300             	3.29616308e+02
301             	3.29621447e+02
302             	3.29626597e+02
303             	3.29631875e+02
304             	3.29637528e+02
305             	3.29643349e+02
306             	3.29649277e+02
307             	3.29655009e+02
308             	3.29660323e+02
309             	3.29665322e+02
310             	3.29669985e+02
311             	3.29674221e+02
312             	3.29677881e+02
313             	3.29681554e+02
314             	3.29685236e+02
315             	3.29688996e+02
316             	3.29693041e+02
317             	3.29697358e+02
318             	3.29702007e+02
319             	3.29706925e+02
320             	3.29712009e+02
321             	3.29716786e+02
322             	3.29721440e+02
323             	3.29725768e+02
324             	3.29729888e+02
325             	3.29733682e+02
326             	3.29737262e+02
327             	3.29740754e+02
328             	3.29743975e+02
329             	3.29747305e+02
330             	3.29750703e+02
331             	3.29754154e+02
332             	3.29757708e+02
333             	3.29761344e+02
334             	3.29765009e+02
335             	3.29768678e+02
336             	3.29772413e+02
337             	3.29776043e+02
338             	3.29779445e+02
339             	3.29782634e+02
340             	3.29785564e+02
341             	3.29788291e+02
342             	3.29790803e+02
343             	3.29793051e+02
344             	3.29795433e+02
345             	3.29797771e+02
346             	3.29800275e+02
347             	3.29803011e+02
348             	3.29805935e+02
349             	3.29809022e+02
350             	3.29812298e+02
351             	3.29815463e+02
352             	3.29818491e+02
353             	3.29821219e+02
354             	3.29823676e+02
355             	3.29825912e+02
356             	3.29827826e+02
357             	3.29829598e+02
358             	3.29831304e+02
359             	3.29833046e+02
360             	3.29834911e+02
361             	3.29836977e+02
362             	3.29839323e+02
363             	3.29842102e+02
364             	3.29845122e+02
365             	3.29847929e+02
366             	3.29850420e+02
367             	3.29852665e+02
368             	3.29854543e+02
369             	3.29856125e+02
370             	3.29857374e+02
371             	3.29858546e+02
372             	3.29859770e+02
373             	3.29861111e+02
374             	3.29862743e+02
375             	3.29864567e+02
376             	3.29866580e+02
377             	3.29868705e+02
378             	3.29871006e+02
379             	3.29873229e+02
380             	3.29875130e+02
381             	3.29876901e+02
382             	3.29878562e+02
383             	3.29879975e+02
384             	3.29881166e+02
385             	3.29882235e+02
386             	3.29883344e+02
387             	3.29884445e+02
388             	3.29885698e+02
389             	3.29887156e+02
390             	3.29888818e+02
391             	3.29890708e+02
392             	3.29892510e+02
393             	3.29894159e+02
394             	3.29895687e+02
395             	3.29897022e+02
396             	3.29898070e+02
397             	3.29898970e+02
398             	3.29899730e+02
399             	3.29900519e+02
400             	3.29901329e+02
401             	3.29902256e+02
402             	3.29903392e+02
403             	3.29904725e+02
404             	3.29906249e+02
405             	3.29907854e+02
406             	3.29909317e+02
407             	3.29910644e+02
408             	3.29911856e+02
409             	3.29912923e+02
410             	3.29913818e+02
411             	3.29914601e+02
412             	3.29915302e+02
413             	3.29916060e+02
414             	3.29916838e+02
415             	3.29917711e+02
416             	3.29918668e+02
417             	3.29919719e+02
418             	3.29920855e+02
419             	3.29921971e+02
420             	3.29923011e+02
421             	3.29923986e+02
422             	3.29924865e+02
423             	3.29925664e+02
424             	3.29926401e+02
425             	3.29927066e+02
426             	3.29927727e+02
427             	3.29928405e+02
428             	3.29929127e+02
429             	3.29929891e+02
430             	3.29930700e+02
431             	3.29931529e+02
432             	3.29932370e+02
433             	3.29933187e+02
434             	3.29933968e+02
435             	3.29934705e+02
436             	3.29935394e+02
437             	3.29936040e+02
438             	3.29936650e+02
439             	3.29937257e+02
440             	3.29937872e+02
441             	3.29938489e+02
442             	3.29939122e+02
443             	3.29939769e+02
444             	3.29940438e+02
445             	3.29941085e+02
446             	3.29941663e+02
447             	3.29942235e+02
448             	3.29942778e+02
449             	3.29943295e+02
450             	3.29943787e+02
451             	3.29944259e+02
452             	3.29944737e+02
453             	3.29945232e+02
454             	3.29945744e+02
455             	3.29946277e+02
456             	3.29946827e+02
457             	3.29947378e+02
458             	3.29947922e+02
459             	3.29948438e+02
460             	3.29948914e+02
461             	3.29949362e+02
462             	3.29949764e+02
463             	3.29950131e+02
464             	3.29950478e+02
465             	3.29950821e+02
466             	3.29951160e+02
467             	3.29951507e+02
468             	3.29951882e+02
469             	3.29952276e+02
470             	3.29952672e+02
471             	3.29953079e+02
472             	3.29953477e+02
473             	3.29953863e+02
474             	3.29954240e+02
475             	3.29954608e+02
476             	3.29954970e+02
477             	3.29955316e+02
478             	3.29955641e+02
479             	3.29955967e+02
480             	3.29956287e+02
481             	3.29956604e+02
482             	3.29956927e+02
483             	3.29957270e+02
484             	3.29957611e+02
485             	3.29957947e+02
486             	3.29958267e+02
487             	3.29958571e+02
488             	3.29958852e+02
489             	3.29959101e+02
490             	3.29959347e+02
491             	3.29959591e+02
492             	3.29959832e+02
493             	3.29960077e+02
494             	3.29960333e+02
495             	3.29960602e+02
496             	3.29960895e+02
497             	3.29961182e+02
498             	3.29961469e+02
499             	3.29961764e+02
500             	3.29962050e+02
501             	3.29962312e+02
502             	3.29962548e+02
503             	3.29962776e+02
504             	3.29962986e+02
505             	3.29963173e+02
506             	3.29963340e+02
507             	3.29963518e+02
508             	3.29963700e+02
509             	3.29963881e+02
510             	3.29964081e+02
511             	3.29964299e+02
512             	3.29964521e+02
513             	3.29964748e+02
514             	3.29964961e+02
515             	3.29965167e+02
516             	3.29965359e+02
517             	3.29965533e+02
518             	3.29965694e+02
519             	3.29965852e+02
520             	3.29965996e+02
521             	3.29966151e+02
522             	3.29966317e+02
523             	3.29966494e+02
524             	3.29966684e+02
525             	3.29966896e+02
526             	3.29967107e+02
527             	3.29967330e+02
528             	3.29967541e+02
529             	3.29967735e+02
530             	3.29967908e+02
531             	3.29968051e+02
532             	3.29968178e+02
533             	3.29968291e+02
534             	3.29968399e+02
535             	3.29968509e+02
536             	3.29968624e+02
537             	3.29968739e+02
538             	3.29968866e+02
539             	3.29969002e+02
540             	3.29969141e+02
541             	3.29969279e+02
542             	3.29969416e+02
543             	3.29969551e+02
544             	3.29969677e+02
545             	3.29969798e+02
546             	3.29969918e+02
547             	3.29970035e+02
548             	3.29970150e+02
549             	3.29970265e+02
550             	3.29970383e+02
551             	3.29970505e+02
552             	3.29970627e+02
553             	3.29970746e+02
554             	3.29970858e+02
555             	3.29970967e+02
556             	3.29971066e+02
557             	3.29971157e+02
558             	3.29971241e+02
559             	3.29971332e+02
560             	3.29971420e+02
561             	3.29971503e+02
562             	3.29971587e+02
563             	3.29971673e+02
564             	3.29971758e+02
565             	3.29971840e+02
566             	3.29971918e+02
567             	3.29971983e+02
568             	3.29972049e+02
569             	3.29972110e+02
570             	3.29972174e+02
571             	3.29972241e+02
572             	3.29972312e+02
573             	3.29972381e+02
574             	3.29972448e+02
575             	3.29972533e+02
576             	3.29972607e+02
577             	3.29972689e+02
578             	3.29972756e+02
579             	3.29972826e+02
580             	3.29972886e+02
581             	3.29972946e+02
582             	3.29972999e+02
583             	3.29973057e+02
584             	3.29973107e+02
585             	3.29973155e+02
586             	3.29973198e+02
587             	3.29973246e+02
588             	3.29973290e+02
589             	3.29973334e+02
590             	3.29973375e+02
591             	3.29973425e+02
592             	3.29973474e+02
593             	3.29973531e+02
594             	3.29973582e+02
595             	3.29973641e+02
596             	3.29973695e+02
597             	3.29973747e+02
598             	3.29973792e+02
599             	3.29973842e+02
600             	3.29973885e+02
601             	3.29973926e+02
602             	3.29973960e+02
603             	3.29973994e+02
604             	3.29974029e+02
605             	3.29974066e+02
606             	3.29974102e+02
607             	3.29974150e+02
608             	3.29974192e+02
609             	3.29974236e+02
610             	3.29974282e+02
611             	3.29974325e+02
612             	3.29974368e+02
613             	3.29974401e+02
614             	3.29974431e+02
615             	3.29974458e+02
616             	3.29974480e+02
617             	3.29974501e+02
618             	3.29974518e+02
619             	3.29974539e+02
620             	3.29974566e+02
621             	3.29974594e+02
