# Region        : cellZone component_1
# Cells         : 97
# Volume        : 1.65678593e-01
# Time          	volAverage(T)
1               	3.01388260e+02
2               	3.02750864e+02
3               	3.03896472e+02
4               	3.04907898e+02
5               	3.05887377e+02
6               	3.06847330e+02
7               	3.07789976e+02
8               	3.08726316e+02
9               	3.09644997e+02
10              	3.10568598e+02
11              	3.11401407e+02
12              	3.12163328e+02
13              	3.12894949e+02
14              	3.13572464e+02
15              	3.14239668e+02
16              	3.14908799e+02
17              	3.15570620e+02
18              	3.16227918e+02
19              	3.16866457e+02
20              	3.17524525e+02
21              	3.18185765e+02
22              	3.18840037e+02
23              	3.19497096e+02
24              	3.20135685e+02
25              	3.20768867e+02
26              	3.21361331e+02
27              	3.21917858e+02
28              	3.22480779e+02
29              	3.23009850e+02
30              	3.23490608e+02
31              	3.23940135e+02
32              	3.24354368e+02
33              	3.24712919e+02
34              	3.25016276e+02
35              	3.25254336e+02
36              	3.25401714e+02
37              	3.25598310e+02
38              	3.25890862e+02
39              	3.26217085e+02
40              	3.26482161e+02
41              	3.26742374e+02
42              	3.27022458e+02
43              	3.27311049e+02
44              	3.27617596e+02
45              	3.27918423e+02
46              	3.28292392e+02
47              	3.28623650e+02
48              	3.28827556e+02
49              	3.28920078e+02
50              	3.28946466e+02
51              	3.28928113e+02
52              	3.28980748e+02
53              	3.29159132e+02
54              	3.29327606e+02
55              	3.29472151e+02
56              	3.29615157e+02
57              	3.29761404e+02
58              	3.29923715e+02
59              	3.30110441e+02
60              	3.30314737e+02
61              	3.30549015e+02
62              	3.30782455e+02
63              	3.30977866e+02
64              	3.31103401e+02
65              	3.31189627e+02
66              	3.31215844e+02
67              	3.31213330e+02
68              	3.31239051e+02
69              	3.31300871e+02
70              	3.31400078e+02
71              	3.31561705e+02
72              	3.31739357e+02
73              	3.31920600e+02
74              	3.32076867e+02
75              	3.32237452e+02
76              	3.32391573e+02
77              	3.32552487e+02
78              	3.32749344e+02
79              	3.32931409e+02
80              	3.33026368e+02
81              	3.33057587e+02
82              	3.33099037e+02
83              	3.33142633e+02
84              	3.33174089e+02
85              	3.33181723e+02
86              	3.33231095e+02
87              	3.33295635e+02
88              	3.33376706e+02
89              	3.33465737e+02
90              	3.33548945e+02
91              	3.33624971e+02
92              	3.33741934e+02
93              	3.33887509e+02
94              	3.33954296e+02
95              	3.33985807e+02
96              	3.33996850e+02
97              	3.33996528e+02
98              	3.33919927e+02
99              	3.33852465e+02
100             	3.33862932e+02
101             	3.33873291e+02
102             	3.33870462e+02
103             	3.33872849e+02
104             	3.33897460e+02
105             	3.33957184e+02
106             	3.34073556e+02
107             	3.34170238e+02
108             	3.34188326e+02
109             	3.34055649e+02
110             	3.33894003e+02
111             	3.33770536e+02
112             	3.33692135e+02
113             	3.33654909e+02
114             	3.33662151e+02
115             	3.33775258e+02
116             	3.33911540e+02
117             	3.34026240e+02
118             	3.34133634e+02
119             	3.34231893e+02
120             	3.34327699e+02
121             	3.34411067e+02
122             	3.34507310e+02
123             	3.34642199e+02
124             	3.34769994e+02
125             	3.34875984e+02
126             	3.34935863e+02
127             	3.34980333e+02
128             	3.35040442e+02
129             	3.35036264e+02
130             	3.35014939e+02
131             	3.34980786e+02
132             	3.34990436e+02
133             	3.35026578e+02
134             	3.35067066e+02
135             	3.35150175e+02
136             	3.35252956e+02
137             	3.35347971e+02
138             	3.35425738e+02
139             	3.35505806e+02
140             	3.35608937e+02
141             	3.35730270e+02
142             	3.35845853e+02
143             	3.35931007e+02
144             	3.35992928e+02
145             	3.36047919e+02
146             	3.36062763e+02
147             	3.36136877e+02
148             	3.36260642e+02
149             	3.36365842e+02
150             	3.36439544e+02
151             	3.36512751e+02
152             	3.36600909e+02
153             	3.36699855e+02
154             	3.36798515e+02
155             	3.36935729e+02
156             	3.37075762e+02
157             	3.37214204e+02
158             	3.37304707e+02
159             	3.37399311e+02
160             	3.37504937e+02
161             	3.37611741e+02
162             	3.37720801e+02
163             	3.37818140e+02
164             	3.37913900e+02
165             	3.38025396e+02
166             	3.38151389e+02
167             	3.38265859e+02
168             	3.38368307e+02
169             	3.38460834e+02
170             	3.38542928e+02
171             	3.38618326e+02
172             	3.38682597e+02
173             	3.38746458e+02
174             	3.38808660e+02
175             	3.38864470e+02
176             	3.38918396e+02
177             	3.38968503e+02
178             	3.39022055e+02
179             	3.39075290e+02
180             	3.39130616e+02
181             	3.39188147e+02
182             	3.39246260e+02
183             	3.39305748e+02
184             	3.39384863e+02
185             	3.39455353e+02
186             	3.39522485e+02
187             	3.39590015e+02
188             	3.39666214e+02
189             	3.39724233e+02
190             	3.39796269e+02
191             	3.39864115e+02
192             	3.39926923e+02
193             	3.39974395e+02
194             	3.40003128e+02
195             	3.40016355e+02
196             	3.40012077e+02
197             	3.40013142e+02
198             	3.40021468e+02
199             	3.40033470e+02
200             	3.40042927e+02
201             	3.40048879e+02
202             	3.40055696e+02
203             	3.40067626e+02
204             	3.40087211e+02
205             	3.40114619e+02
206             	3.40142248e+02
207             	3.40160641e+02
208             	3.40194317e+02
209             	3.40228572e+02
210             	3.40262787e+02
211             	3.40308728e+02
212             	3.40366786e+02
213             	3.40423745e+02
214             	3.40473814e+02
215             	3.40507306e+02
216             	3.40530251e+02
217             	3.40553167e+02
218             	3.40582834e+02
219             	3.40615444e+02
220             	3.40646513e+02
221             	3.40674901e+02
222             	3.40702482e+02
223             	3.40735370e+02
224             	3.40768479e+02
225             	3.40800623e+02
226             	3.40831299e+02
227             	3.40850663e+02
228             	3.40875475e+02
229             	3.40900609e+02
230             	3.40927626e+02
231             	3.40961840e+02
232             	3.40983865e+02
233             	3.41000922e+02
234             	3.41020842e+02
235             	3.41038484e+02
236             	3.41058549e+02
237             	3.41079952e+02
238             	3.41101531e+02
239             	3.41117082e+02
240             	3.41136013e+02
241             	3.41160938e+02
242             	3.41171415e+02
243             	3.41183057e+02
244             	3.41200433e+02
245             	3.41213868e+02
246             	3.41221742e+02
247             	3.41235197e+02
248             	3.41237397e+02
249             	3.41246179e+02
250             	3.41260187e+02
251             	3.41271248e+02
252             	3.41281755e+02
253             	3.41291816e+02
254             	3.41307248e+02
255             	3.41322713e+02
256             	3.41338392e+02
257             	3.41353596e+02
258             	3.41368790e+02
259             	3.41384887e+02
260             	3.41400868e+02
261             	3.41413458e+02
262             	3.41429446e+02
263             	3.41442417e+02
264             	3.41451193e+02
265             	3.41452814e+02
266             	3.41452593e+02
267             	3.41455202e+02
268             	3.41463055e+02
269             	3.41471176e+02
270             	3.41478316e+02
271             	3.41481958e+02
272             	3.41485064e+02
273             	3.41489590e+02
274             	3.41495754e+02
275             	3.41504906e+02
276             	3.41512027e+02
277             	3.41523163e+02
278             	3.41537711e+02
279             	3.41550599e+02
280             	3.41557833e+02
281             	3.41566988e+02
282             	3.41576124e+02
283             	3.41587196e+02
284             	3.41599338e+02
285             	3.41611668e+02
286             	3.41624144e+02
287             	3.41636539e+02
288             	3.41648072e+02
289             	3.41657622e+02
290             	3.41666104e+02
291             	3.41673518e+02
292             	3.41680196e+02
293             	3.41685609e+02
294             	3.41689533e+02
295             	3.41694634e+02
296             	3.41698691e+02
297             	3.41702605e+02
298             	3.41703234e+02
299             	3.41706163e+02
300             	3.41703542e+02
301             	3.41702627e+02
302             	3.41703986e+02
303             	3.41711369e+02
304             	3.41712389e+02
305             	3.41710826e+02
306             	3.41710170e+02
307             	3.41710439e+02
308             	3.41710722e+02
309             	3.41710479e+02
310             	3.41710503e+02
311             	3.41711650e+02
312             	3.41713898e+02
313             	3.41714748e+02
314             	3.41715254e+02
315             	3.41716073e+02
316             	3.41715725e+02
317             	3.41714990e+02
318             	3.41713546e+02
319             	3.41714006e+02
320             	3.41714459e+02
321             	3.41716160e+02
322             	3.41717575e+02
323             	3.41719299e+02
324             	3.41719097e+02
325             	3.41718807e+02
326             	3.41719631e+02
327             	3.41720372e+02
328             	3.41721268e+02
329             	3.41721855e+02
330             	3.41721923e+02
331             	3.41721388e+02
332             	3.41720320e+02
333             	3.41718910e+02
334             	3.41716881e+02
335             	3.41714674e+02
336             	3.41712598e+02
337             	3.41710882e+02
338             	3.41709991e+02
339             	3.41709336e+02
340             	3.41709567e+02
341             	3.41710158e+02
342             	3.41711266e+02
343             	3.41717451e+02
344             	3.41722710e+02
345             	3.41727881e+02
346             	3.41733728e+02
347             	3.41739642e+02
348             	3.41743157e+02
349             	3.41745001e+02
350             	3.41749477e+02
351             	3.41754462e+02
352             	3.41758659e+02
353             	3.41762668e+02
354             	3.41767813e+02
355             	3.41773447e+02
356             	3.41777618e+02
357             	3.41779082e+02
358             	3.41780149e+02
359             	3.41782303e+02
360             	3.41785196e+02
361             	3.41786103e+02
362             	3.41786062e+02
363             	3.41787150e+02
364             	3.41789089e+02
365             	3.41789088e+02
366             	3.41787930e+02
367             	3.41786503e+02
368             	3.41784472e+02
369             	3.41782991e+02
370             	3.41782433e+02
371             	3.41780248e+02
372             	3.41778215e+02
373             	3.41776382e+02
374             	3.41775602e+02
375             	3.41775263e+02
376             	3.41775605e+02
377             	3.41775426e+02
378             	3.41774310e+02
379             	3.41773414e+02
380             	3.41772935e+02
381             	3.41772843e+02
382             	3.41772532e+02
383             	3.41771637e+02
384             	3.41771751e+02
385             	3.41770789e+02
386             	3.41769425e+02
387             	3.41768426e+02
388             	3.41767728e+02
389             	3.41767375e+02
390             	3.41768100e+02
391             	3.41769616e+02
392             	3.41771330e+02
393             	3.41773367e+02
394             	3.41775685e+02
395             	3.41777930e+02
396             	3.41779717e+02
397             	3.41781397e+02
398             	3.41782906e+02
399             	3.41783899e+02
400             	3.41784244e+02
401             	3.41785023e+02
402             	3.41784862e+02
403             	3.41784081e+02
404             	3.41783413e+02
405             	3.41783252e+02
406             	3.41783618e+02
407             	3.41784341e+02
408             	3.41785637e+02
409             	3.41785751e+02
410             	3.41786658e+02
411             	3.41788002e+02
412             	3.41788113e+02
413             	3.41787955e+02
414             	3.41788103e+02
415             	3.41788354e+02
416             	3.41788284e+02
417             	3.41788513e+02
418             	3.41789238e+02
419             	3.41789926e+02
420             	3.41790389e+02
421             	3.41791551e+02
422             	3.41792505e+02
423             	3.41793630e+02
424             	3.41795230e+02
425             	3.41796942e+02
426             	3.41798611e+02
427             	3.41800234e+02
428             	3.41801734e+02
429             	3.41803028e+02
430             	3.41804183e+02
431             	3.41805734e+02
432             	3.41806959e+02
433             	3.41807700e+02
434             	3.41808713e+02
435             	3.41809759e+02
436             	3.41810424e+02
437             	3.41811448e+02
438             	3.41812376e+02
439             	3.41812974e+02
440             	3.41813438e+02
441             	3.41813911e+02
442             	3.41814365e+02
443             	3.41814720e+02
444             	3.41814917e+02
445             	3.41814941e+02
446             	3.41814804e+02
447             	3.41814519e+02
448             	3.41814120e+02
449             	3.41813774e+02
450             	3.41813348e+02
451             	3.41812721e+02
452             	3.41811868e+02
453             	3.41810758e+02
454             	3.41809764e+02
455             	3.41808842e+02
456             	3.41807848e+02
457             	3.41806835e+02
458             	3.41805854e+02
459             	3.41804955e+02
460             	3.41804134e+02
461             	3.41803388e+02
462             	3.41802697e+02
463             	3.41802075e+02
464             	3.41801519e+02
465             	3.41801078e+02
466             	3.41800665e+02
467             	3.41800236e+02
468             	3.41799785e+02
469             	3.41799299e+02
470             	3.41798879e+02
471             	3.41798874e+02
472             	3.41798661e+02
473             	3.41798330e+02
474             	3.41798059e+02
475             	3.41797889e+02
476             	3.41797829e+02
477             	3.41797967e+02
478             	3.41798425e+02
479             	3.41799347e+02
480             	3.41800425e+02
481             	3.41801757e+02
482             	3.41802598e+02
483             	3.41803199e+02
484             	3.41804210e+02
485             	3.41805205e+02
486             	3.41805925e+02
487             	3.41806573e+02
488             	3.41807507e+02
489             	3.41808850e+02
490             	3.41809885e+02
491             	3.41811040e+02
492             	3.41811713e+02
493             	3.41812371e+02
494             	3.41813345e+02
495             	3.41814005e+02
496             	3.41814538e+02
497             	3.41815066e+02
498             	3.41815978e+02
499             	3.41816472e+02
500             	3.41816745e+02
501             	3.41817046e+02
502             	3.41817469e+02
503             	3.41817978e+02
504             	3.41818474e+02
505             	3.41818834e+02
506             	3.41819031e+02
507             	3.41819173e+02
508             	3.41819233e+02
509             	3.41819078e+02
510             	3.41818856e+02
511             	3.41818580e+02
512             	3.41818150e+02
513             	3.41817619e+02
514             	3.41817067e+02
515             	3.41816525e+02
516             	3.41815917e+02
517             	3.41815339e+02
518             	3.41814817e+02
519             	3.41814314e+02
520             	3.41813774e+02
521             	3.41813058e+02
522             	3.41812348e+02
523             	3.41811712e+02
524             	3.41810933e+02
525             	3.41810025e+02
526             	3.41809356e+02
527             	3.41808876e+02
528             	3.41808273e+02
529             	3.41807711e+02
530             	3.41807286e+02
531             	3.41806927e+02
532             	3.41806576e+02
533             	3.41806180e+02
534             	3.41805855e+02
535             	3.41805654e+02
536             	3.41805435e+02
537             	3.41805159e+02
538             	3.41804878e+02
539             	3.41804699e+02
540             	3.41804666e+02
541             	3.41805160e+02
542             	3.41805834e+02
543             	3.41806391e+02
544             	3.41806596e+02
545             	3.41807179e+02
546             	3.41807871e+02
547             	3.41808712e+02
548             	3.41809571e+02
549             	3.41810226e+02
550             	3.41810904e+02
551             	3.41811584e+02
552             	3.41812231e+02
553             	3.41812821e+02
554             	3.41813374e+02
555             	3.41813918e+02
556             	3.41814553e+02
557             	3.41815131e+02
558             	3.41815802e+02
559             	3.41816406e+02
560             	3.41816839e+02
561             	3.41817131e+02
562             	3.41817473e+02
563             	3.41817782e+02
564             	3.41818024e+02
565             	3.41818208e+02
566             	3.41818325e+02
567             	3.41818381e+02
568             	3.41818417e+02
569             	3.41818440e+02
570             	3.41818437e+02
571             	3.41818409e+02
572             	3.41818388e+02
573             	3.41818413e+02
574             	3.41818390e+02
575             	3.41818377e+02
576             	3.41818384e+02
577             	3.41818425e+02
578             	3.41818481e+02
579             	3.41818526e+02
580             	3.41818525e+02
581             	3.41818481e+02
582             	3.41818405e+02
583             	3.41818309e+02
584             	3.41818213e+02
585             	3.41818340e+02
586             	3.41818328e+02
587             	3.41818197e+02
588             	3.41818025e+02
589             	3.41817896e+02
590             	3.41817790e+02
591             	3.41817680e+02
592             	3.41817551e+02
593             	3.41817399e+02
594             	3.41817239e+02
595             	3.41817044e+02
596             	3.41816800e+02
597             	3.41816524e+02
598             	3.41816247e+02
599             	3.41815930e+02
600             	3.41815928e+02
601             	3.41815807e+02
602             	3.41815637e+02
603             	3.41815525e+02
604             	3.41815481e+02
605             	3.41815425e+02
606             	3.41815350e+02
607             	3.41815329e+02
608             	3.41815351e+02
609             	3.41815373e+02
610             	3.41815383e+02
611             	3.41815397e+02
612             	3.41815424e+02
613             	3.41815506e+02
614             	3.41815541e+02
615             	3.41815537e+02
616             	3.41815511e+02
617             	3.41815518e+02
618             	3.41815474e+02
619             	3.41815706e+02
620             	3.41815832e+02
621             	3.41815892e+02
