# Region        : cellZone pcb
# Cells         : 495
# Volume        : 8.30477526e-01
# Time          	volAverage(T)
1               	3.00024236e+02
2               	3.00070002e+02
3               	3.00133021e+02
4               	3.00212046e+02
5               	3.00303591e+02
6               	3.00408831e+02
7               	3.00525646e+02
8               	3.00655022e+02
9               	3.00796554e+02
10              	3.00950275e+02
11              	3.01115662e+02
12              	3.01291080e+02
13              	3.01475753e+02
14              	3.01667504e+02
15              	3.01869603e+02
16              	3.02078663e+02
17              	3.02293457e+02
18              	3.02513117e+02
19              	3.02742899e+02
20              	3.02978312e+02
21              	3.03220158e+02
22              	3.03464947e+02
23              	3.03714476e+02
24              	3.03968994e+02
25              	3.04222757e+02
26              	3.04486897e+02
27              	3.04754765e+02
28              	3.05026354e+02
29              	3.05301150e+02
30              	3.05581661e+02
31              	3.05870265e+02
32              	3.06159163e+02
33              	3.06450601e+02
34              	3.06741107e+02
35              	3.07036462e+02
36              	3.07328329e+02
37              	3.07620499e+02
38              	3.07916169e+02
39              	3.08218674e+02
40              	3.08516955e+02
41              	3.08823536e+02
42              	3.09132910e+02
43              	3.09444773e+02
44              	3.09757742e+02
45              	3.10071227e+02
46              	3.10383832e+02
47              	3.10694153e+02
48              	3.11009881e+02
49              	3.11320012e+02
50              	3.11623706e+02
51              	3.11933065e+02
52              	3.12252566e+02
53              	3.12564461e+02
54              	3.12871894e+02
55              	3.13183268e+02
56              	3.13501675e+02
57              	3.13817502e+02
58              	3.14125444e+02
59              	3.14428139e+02
60              	3.14725689e+02
61              	3.15023037e+02
62              	3.15320115e+02
63              	3.15627908e+02
64              	3.15936292e+02
65              	3.16231475e+02
66              	3.16531188e+02
67              	3.16832400e+02
68              	3.17140547e+02
69              	3.17440334e+02
70              	3.17731573e+02
71              	3.18014548e+02
72              	3.18297207e+02
73              	3.18574504e+02
74              	3.18850593e+02
75              	3.19121504e+02
76              	3.19406923e+02
77              	3.19684365e+02
78              	3.19959572e+02
79              	3.20226862e+02
80              	3.20494879e+02
81              	3.20764308e+02
82              	3.21030203e+02
83              	3.21298639e+02
84              	3.21563758e+02
85              	3.21834886e+02
86              	3.22090928e+02
87              	3.22341908e+02
88              	3.22587959e+02
89              	3.22837646e+02
90              	3.23083093e+02
91              	3.23325089e+02
92              	3.23573475e+02
93              	3.23830673e+02
94              	3.24088839e+02
95              	3.24337955e+02
96              	3.24574789e+02
97              	3.24807620e+02
98              	3.25038252e+02
99              	3.25254551e+02
100             	3.25471256e+02
101             	3.25682302e+02
102             	3.25896823e+02
103             	3.26113636e+02
104             	3.26335787e+02
105             	3.26563604e+02
106             	3.26782413e+02
107             	3.26999329e+02
108             	3.27220653e+02
109             	3.27444088e+02
110             	3.27658986e+02
111             	3.27869310e+02
112             	3.28078911e+02
113             	3.28284853e+02
114             	3.28482254e+02
115             	3.28680264e+02
116             	3.28870750e+02
117             	3.29063402e+02
118             	3.29252867e+02
119             	3.29445329e+02
120             	3.29634892e+02
121             	3.29819746e+02
122             	3.30003022e+02
123             	3.30188911e+02
124             	3.30374548e+02
125             	3.30561225e+02
126             	3.30753879e+02
127             	3.30944524e+02
128             	3.31129192e+02
129             	3.31303354e+02
130             	3.31472980e+02
131             	3.31640132e+02
132             	3.31806376e+02
133             	3.31972656e+02
134             	3.32138439e+02
135             	3.32306806e+02
136             	3.32475719e+02
137             	3.32646076e+02
138             	3.32815387e+02
139             	3.32981810e+02
140             	3.33146010e+02
141             	3.33303918e+02
142             	3.33456856e+02
143             	3.33606356e+02
144             	3.33752763e+02
145             	3.33898707e+02
146             	3.34046549e+02
147             	3.34195966e+02
148             	3.34341390e+02
149             	3.34482488e+02
150             	3.34623150e+02
151             	3.34763051e+02
152             	3.34902201e+02
153             	3.35040656e+02
154             	3.35178440e+02
155             	3.35313708e+02
156             	3.35447344e+02
157             	3.35579850e+02
158             	3.35712505e+02
159             	3.35847599e+02
160             	3.35983384e+02
161             	3.36116420e+02
162             	3.36245492e+02
163             	3.36370981e+02
164             	3.36494637e+02
165             	3.36615959e+02
166             	3.36735349e+02
167             	3.36854864e+02
168             	3.36974630e+02
169             	3.37093221e+02
170             	3.37212060e+02
171             	3.37329708e+02
172             	3.37445439e+02
173             	3.37558522e+02
174             	3.37669608e+02
175             	3.37778235e+02
176             	3.37886023e+02
177             	3.37992091e+02
178             	3.38095504e+02
179             	3.38197779e+02
180             	3.38298792e+02
181             	3.38399547e+02
182             	3.38499363e+02
183             	3.38599003e+02
184             	3.38697773e+02
185             	3.38795171e+02
186             	3.38891549e+02
187             	3.38987184e+02
188             	3.39081907e+02
189             	3.39175474e+02
190             	3.39267514e+02
191             	3.39359133e+02
192             	3.39449470e+02
193             	3.39538613e+02
194             	3.39625444e+02
195             	3.39710745e+02
196             	3.39794996e+02
197             	3.39878848e+02
198             	3.39962159e+02
199             	3.40044001e+02
200             	3.40125072e+02
201             	3.40205350e+02
202             	3.40285726e+02
203             	3.40365185e+02
204             	3.40443199e+02
205             	3.40519179e+02
206             	3.40593736e+02
207             	3.40667881e+02
208             	3.40740056e+02
209             	3.40811210e+02
210             	3.40882022e+02
211             	3.40951618e+02
212             	3.41020301e+02
213             	3.41087807e+02
214             	3.41154966e+02
215             	3.41222007e+02
216             	3.41288262e+02
217             	3.41353454e+02
218             	3.41418007e+02
219             	3.41481744e+02
220             	3.41544725e+02
221             	3.41606537e+02
222             	3.41667432e+02
223             	3.41727275e+02
224             	3.41786307e+02
225             	3.41844671e+02
226             	3.41902154e+02
227             	3.41958597e+02
228             	3.42014428e+02
229             	3.42068862e+02
230             	3.42122093e+02
231             	3.42174665e+02
232             	3.42226920e+02
233             	3.42278901e+02
234             	3.42329698e+02
235             	3.42380209e+02
236             	3.42430433e+02
237             	3.42480120e+02
238             	3.42528759e+02
239             	3.42576792e+02
240             	3.42624045e+02
241             	3.42670331e+02
242             	3.42715571e+02
243             	3.42759636e+02
244             	3.42803081e+02
245             	3.42846498e+02
246             	3.42888610e+02
247             	3.42929692e+02
248             	3.42970292e+02
249             	3.43010009e+02
250             	3.43049310e+02
251             	3.43088767e+02
252             	3.43128045e+02
253             	3.43166985e+02
254             	3.43204844e+02
255             	3.43241434e+02
256             	3.43277662e+02
257             	3.43313286e+02
258             	3.43348408e+02
259             	3.43383154e+02
260             	3.43417742e+02
261             	3.43452227e+02
262             	3.43485713e+02
263             	3.43518201e+02
264             	3.43550072e+02
265             	3.43581697e+02
266             	3.43613167e+02
267             	3.43643721e+02
268             	3.43673991e+02
269             	3.43704416e+02
270             	3.43734849e+02
271             	3.43764799e+02
272             	3.43793496e+02
273             	3.43821830e+02
274             	3.43850001e+02
275             	3.43877518e+02
276             	3.43904163e+02
277             	3.43930458e+02
278             	3.43956883e+02
279             	3.43982561e+02
280             	3.44006949e+02
281             	3.44030432e+02
282             	3.44053487e+02
283             	3.44076355e+02
284             	3.44099218e+02
285             	3.44122141e+02
286             	3.44145481e+02
287             	3.44168327e+02
288             	3.44190540e+02
289             	3.44212357e+02
290             	3.44234155e+02
291             	3.44255643e+02
292             	3.44276442e+02
293             	3.44296419e+02
294             	3.44316443e+02
295             	3.44336735e+02
296             	3.44356222e+02
297             	3.44375178e+02
298             	3.44393944e+02
299             	3.44412673e+02
300             	3.44430911e+02
301             	3.44449029e+02
302             	3.44467129e+02
303             	3.44484611e+02
304             	3.44501739e+02
305             	3.44518805e+02
306             	3.44535459e+02
307             	3.44552470e+02
308             	3.44569219e+02
309             	3.44585732e+02
310             	3.44601752e+02
311             	3.44617181e+02
312             	3.44632019e+02
313             	3.44647464e+02
314             	3.44661742e+02
315             	3.44675245e+02
316             	3.44688147e+02
317             	3.44700707e+02
318             	3.44713279e+02
319             	3.44726094e+02
320             	3.44739273e+02
321             	3.44751836e+02
322             	3.44763678e+02
323             	3.44776293e+02
324             	3.44788830e+02
325             	3.44801245e+02
326             	3.44814330e+02
327             	3.44826801e+02
328             	3.44838921e+02
329             	3.44849966e+02
330             	3.44860479e+02
331             	3.44870996e+02
332             	3.44880867e+02
333             	3.44890278e+02
334             	3.44900679e+02
335             	3.44911817e+02
336             	3.44923344e+02
337             	3.44934766e+02
338             	3.44946025e+02
339             	3.44955864e+02
340             	3.44965183e+02
341             	3.44973979e+02
342             	3.44982341e+02
343             	3.44990541e+02
344             	3.44998852e+02
345             	3.45007299e+02
346             	3.45015995e+02
347             	3.45024804e+02
348             	3.45033629e+02
349             	3.45042407e+02
350             	3.45051082e+02
351             	3.45059468e+02
352             	3.45067321e+02
353             	3.45074525e+02
354             	3.45081796e+02
355             	3.45089122e+02
356             	3.45096175e+02
357             	3.45103000e+02
358             	3.45109729e+02
359             	3.45116382e+02
360             	3.45123257e+02
361             	3.45130436e+02
362             	3.45136704e+02
363             	3.45142419e+02
364             	3.45147960e+02
365             	3.45153533e+02
366             	3.45159124e+02
367             	3.45164461e+02
368             	3.45169673e+02
369             	3.45175556e+02
370             	3.45181684e+02
371             	3.45187901e+02
372             	3.45194068e+02
373             	3.45199984e+02
374             	3.45205902e+02
375             	3.45211278e+02
376             	3.45216078e+02
377             	3.45220608e+02
378             	3.45225105e+02
379             	3.45229645e+02
380             	3.45234302e+02
381             	3.45239203e+02
382             	3.45244288e+02
383             	3.45249332e+02
384             	3.45254310e+02
385             	3.45259095e+02
386             	3.45263512e+02
387             	3.45267876e+02
388             	3.45272260e+02
389             	3.45276678e+02
390             	3.45281057e+02
391             	3.45285354e+02
392             	3.45289556e+02
393             	3.45293581e+02
394             	3.45297687e+02
395             	3.45301577e+02
396             	3.45305282e+02
397             	3.45308939e+02
398             	3.45312415e+02
399             	3.45315890e+02
400             	3.45319223e+02
401             	3.45322485e+02
402             	3.45325782e+02
403             	3.45329158e+02
404             	3.45332440e+02
405             	3.45335982e+02
406             	3.45339545e+02
407             	3.45343165e+02
408             	3.45346783e+02
409             	3.45350385e+02
410             	3.45353924e+02
411             	3.45357325e+02
412             	3.45360541e+02
413             	3.45363557e+02
414             	3.45366541e+02
415             	3.45369488e+02
416             	3.45372327e+02
417             	3.45375079e+02
418             	3.45377857e+02
419             	3.45380649e+02
420             	3.45383405e+02
421             	3.45386151e+02
422             	3.45388853e+02
423             	3.45391543e+02
424             	3.45394366e+02
425             	3.45397212e+02
426             	3.45400127e+02
427             	3.45402977e+02
428             	3.45405766e+02
429             	3.45408511e+02
430             	3.45411214e+02
431             	3.45413843e+02
432             	3.45416388e+02
433             	3.45418948e+02
434             	3.45421360e+02
435             	3.45423627e+02
436             	3.45425847e+02
437             	3.45428085e+02
438             	3.45430386e+02
439             	3.45432799e+02
440             	3.45435297e+02
441             	3.45437799e+02
442             	3.45440119e+02
443             	3.45442496e+02
444             	3.45444878e+02
445             	3.45447179e+02
446             	3.45449380e+02
447             	3.45451636e+02
448             	3.45453917e+02
449             	3.45456187e+02
450             	3.45458398e+02
451             	3.45460576e+02
452             	3.45462723e+02
453             	3.45464738e+02
454             	3.45466703e+02
455             	3.45468623e+02
456             	3.45470511e+02
457             	3.45472358e+02
458             	3.45474202e+02
459             	3.45476054e+02
460             	3.45477916e+02
461             	3.45479806e+02
462             	3.45481733e+02
463             	3.45483728e+02
464             	3.45485753e+02
465             	3.45487772e+02
466             	3.45489670e+02
467             	3.45491590e+02
468             	3.45493506e+02
469             	3.45495405e+02
470             	3.45497284e+02
471             	3.45499160e+02
472             	3.45501019e+02
473             	3.45502847e+02
474             	3.45504658e+02
475             	3.45506441e+02
476             	3.45508198e+02
477             	3.45509911e+02
478             	3.45511599e+02
479             	3.45513320e+02
480             	3.45514992e+02
481             	3.45516616e+02
482             	3.45518220e+02
483             	3.45519823e+02
484             	3.45521431e+02
485             	3.45523054e+02
486             	3.45524694e+02
487             	3.45526334e+02
488             	3.45527957e+02
489             	3.45529593e+02
490             	3.45531205e+02
491             	3.45532812e+02
492             	3.45534431e+02
493             	3.45536063e+02
494             	3.45537692e+02
495             	3.45539291e+02
496             	3.45540861e+02
497             	3.45542411e+02
498             	3.45543947e+02
499             	3.45545475e+02
500             	3.45546997e+02
501             	3.45548521e+02
502             	3.45550033e+02
503             	3.45551544e+02
504             	3.45553041e+02
505             	3.45554526e+02
506             	3.45556005e+02
507             	3.45557482e+02
508             	3.45558964e+02
509             	3.45560448e+02
510             	3.45561923e+02
511             	3.45563405e+02
512             	3.45564881e+02
513             	3.45566347e+02
514             	3.45567807e+02
515             	3.45569261e+02
516             	3.45570710e+02
517             	3.45572158e+02
518             	3.45573567e+02
519             	3.45574993e+02
520             	3.45576428e+02
521             	3.45577860e+02
522             	3.45579285e+02
523             	3.45580697e+02
524             	3.45582094e+02
525             	3.45583477e+02
526             	3.45584846e+02
527             	3.45586204e+02
528             	3.45587552e+02
529             	3.45588892e+02
530             	3.45590226e+02
531             	3.45591557e+02
532             	3.45592883e+02
533             	3.45594205e+02
534             	3.45595526e+02
535             	3.45596860e+02
536             	3.45598181e+02
537             	3.45599492e+02
538             	3.45600799e+02
539             	3.45602108e+02
540             	3.45603420e+02
541             	3.45604736e+02
542             	3.45606059e+02
543             	3.45607381e+02
544             	3.45608700e+02
545             	3.45610021e+02
546             	3.45611336e+02
547             	3.45612625e+02
548             	3.45613914e+02
549             	3.45615201e+02
550             	3.45616483e+02
551             	3.45617757e+02
552             	3.45619028e+02
553             	3.45620299e+02
554             	3.45621570e+02
555             	3.45622829e+02
556             	3.45624076e+02
557             	3.45625322e+02
558             	3.45626562e+02
559             	3.45627790e+02
560             	3.45629011e+02
561             	3.45630225e+02
562             	3.45631434e+02
563             	3.45632658e+02
564             	3.45633867e+02
565             	3.45635067e+02
566             	3.45636267e+02
567             	3.45637472e+02
568             	3.45638679e+02
569             	3.45639886e+02
570             	3.45641087e+02
571             	3.45642287e+02
572             	3.45643476e+02
573             	3.45644653e+02
574             	3.45645820e+02
575             	3.45646985e+02
576             	3.45648153e+02
577             	3.45649324e+02
578             	3.45650497e+02
579             	3.45651664e+02
580             	3.45652831e+02
581             	3.45653995e+02
582             	3.45655153e+02
583             	3.45656306e+02
584             	3.45657453e+02
585             	3.45658602e+02
586             	3.45659745e+02
587             	3.45660887e+02
588             	3.45662023e+02
589             	3.45663162e+02
590             	3.45664305e+02
591             	3.45665450e+02
592             	3.45666589e+02
593             	3.45667729e+02
594             	3.45668873e+02
595             	3.45670007e+02
596             	3.45671138e+02
597             	3.45672270e+02
598             	3.45673393e+02
599             	3.45674511e+02
600             	3.45675622e+02
601             	3.45676729e+02
602             	3.45677827e+02
603             	3.45678912e+02
604             	3.45679990e+02
605             	3.45681065e+02
606             	3.45682141e+02
607             	3.45683213e+02
608             	3.45684284e+02
609             	3.45685351e+02
610             	3.45686403e+02
611             	3.45687460e+02
612             	3.45688523e+02
613             	3.45689584e+02
614             	3.45690637e+02
615             	3.45691699e+02
616             	3.45692754e+02
617             	3.45693798e+02
618             	3.45694831e+02
619             	3.45695854e+02
620             	3.45696870e+02
621             	3.45697889e+02
