# Region        : cellZone component_0
# Cells         : 72
# Volume        : 1.29097056e-01
# Time          	volAverage(T)
1               	3.00547243e+02
2               	3.01089217e+02
3               	3.01594068e+02
4               	3.02074673e+02
5               	3.02544664e+02
6               	3.03004826e+02
7               	3.03459462e+02
8               	3.03910495e+02
9               	3.04352823e+02
10              	3.04777112e+02
11              	3.05195191e+02
12              	3.05587151e+02
13              	3.05975686e+02
14              	3.06353227e+02
15              	3.06734320e+02
16              	3.07119998e+02
17              	3.07501549e+02
18              	3.07861282e+02
19              	3.08223140e+02
20              	3.08576500e+02
21              	3.08924744e+02
22              	3.09263063e+02
23              	3.09594320e+02
24              	3.09930303e+02
25              	3.10275336e+02
26              	3.10614136e+02
27              	3.10949872e+02
28              	3.11287954e+02
29              	3.11621252e+02
30              	3.11952118e+02
31              	3.12291163e+02
32              	3.12627436e+02
33              	3.12963012e+02
34              	3.13280344e+02
35              	3.13607837e+02
36              	3.13924241e+02
37              	3.14238328e+02
38              	3.14540108e+02
39              	3.14835283e+02
40              	3.15127552e+02
41              	3.15415448e+02
42              	3.15701509e+02
43              	3.15986611e+02
44              	3.16268296e+02
45              	3.16540896e+02
46              	3.16811514e+02
47              	3.17073963e+02
48              	3.17333674e+02
49              	3.17607514e+02
50              	3.17884867e+02
51              	3.18157976e+02
52              	3.18409183e+02
53              	3.18651892e+02
54              	3.18889268e+02
55              	3.19129370e+02
56              	3.19371176e+02
57              	3.19608718e+02
58              	3.19836183e+02
59              	3.20058422e+02
60              	3.20280460e+02
61              	3.20502450e+02
62              	3.20728056e+02
63              	3.20951131e+02
64              	3.21173919e+02
65              	3.21393496e+02
66              	3.21600594e+02
67              	3.21796707e+02
68              	3.21974858e+02
69              	3.22167053e+02
70              	3.22370419e+02
71              	3.22580273e+02
72              	3.22790653e+02
73              	3.23004772e+02
74              	3.23215141e+02
75              	3.23430286e+02
76              	3.23641012e+02
77              	3.23852220e+02
78              	3.24067086e+02
79              	3.24283820e+02
80              	3.24502999e+02
81              	3.24724805e+02
82              	3.24950228e+02
83              	3.25171640e+02
84              	3.25399117e+02
85              	3.25614620e+02
86              	3.25837268e+02
87              	3.26068217e+02
88              	3.26289963e+02
89              	3.26506864e+02
90              	3.26730312e+02
91              	3.26951915e+02
92              	3.27173489e+02
93              	3.27379458e+02
94              	3.27583889e+02
95              	3.27778775e+02
96              	3.27959654e+02
97              	3.28143589e+02
98              	3.28324761e+02
99              	3.28505937e+02
100             	3.28684092e+02
101             	3.28851965e+02
102             	3.29022969e+02
103             	3.29188295e+02
104             	3.29366102e+02
105             	3.29538776e+02
106             	3.29704958e+02
107             	3.29872911e+02
108             	3.30023641e+02
109             	3.30180608e+02
110             	3.30340102e+02
111             	3.30500653e+02
112             	3.30645967e+02
113             	3.30783244e+02
114             	3.30930884e+02
115             	3.31076951e+02
116             	3.31231026e+02
117             	3.31368599e+02
118             	3.31509063e+02
119             	3.31652059e+02
120             	3.31784173e+02
121             	3.31916076e+02
122             	3.32060138e+02
123             	3.32197520e+02
124             	3.32341402e+02
125             	3.32487358e+02
126             	3.32618735e+02
127             	3.32764696e+02
128             	3.32905465e+02
129             	3.33052625e+02
130             	3.33187165e+02
131             	3.33328109e+02
132             	3.33455316e+02
133             	3.33599350e+02
134             	3.33736125e+02
135             	3.33877207e+02
136             	3.34020592e+02
137             	3.34162539e+02
138             	3.34280905e+02
139             	3.34406141e+02
140             	3.34517637e+02
141             	3.34633993e+02
142             	3.34739782e+02
143             	3.34847494e+02
144             	3.34949082e+02
145             	3.35051696e+02
146             	3.35156165e+02
147             	3.35263031e+02
148             	3.35371758e+02
149             	3.35484642e+02
150             	3.35583909e+02
151             	3.35691537e+02
152             	3.35788897e+02
153             	3.35881993e+02
154             	3.35985505e+02
155             	3.36082327e+02
156             	3.36176630e+02
157             	3.36280494e+02
158             	3.36392184e+02
159             	3.36496315e+02
160             	3.36609889e+02
161             	3.36710917e+02
162             	3.36819679e+02
163             	3.36924656e+02
164             	3.37012356e+02
165             	3.37106031e+02
166             	3.37204090e+02
167             	3.37296446e+02
168             	3.37395728e+02
169             	3.37499601e+02
170             	3.37590416e+02
171             	3.37686089e+02
172             	3.37771353e+02
173             	3.37852601e+02
174             	3.37947471e+02
175             	3.38049224e+02
176             	3.38136815e+02
177             	3.38229668e+02
178             	3.38323908e+02
179             	3.38403009e+02
180             	3.38488442e+02
181             	3.38560081e+02
182             	3.38639504e+02
183             	3.38722467e+02
184             	3.38809555e+02
185             	3.38883257e+02
186             	3.38968340e+02
187             	3.39042559e+02
188             	3.39114104e+02
189             	3.39194978e+02
190             	3.39282039e+02
191             	3.39370946e+02
192             	3.39436419e+02
193             	3.39511140e+02
194             	3.39589030e+02
195             	3.39669079e+02
196             	3.39733804e+02
197             	3.39807260e+02
198             	3.39883382e+02
199             	3.39962190e+02
200             	3.40044922e+02
201             	3.40105131e+02
202             	3.40176826e+02
203             	3.40250607e+02
204             	3.40312195e+02
205             	3.40382295e+02
206             	3.40455855e+02
207             	3.40533012e+02
208             	3.40594793e+02
209             	3.40665139e+02
210             	3.40738696e+02
211             	3.40798803e+02
212             	3.40866341e+02
213             	3.40937133e+02
214             	3.40994221e+02
215             	3.41058579e+02
216             	3.41107346e+02
217             	3.41162693e+02
218             	3.41221048e+02
219             	3.41285577e+02
220             	3.41352027e+02
221             	3.41411878e+02
222             	3.41458707e+02
223             	3.41517790e+02
224             	3.41582909e+02
225             	3.41631178e+02
226             	3.41686266e+02
227             	3.41730632e+02
228             	3.41782929e+02
229             	3.41839821e+02
230             	3.41883105e+02
231             	3.41934041e+02
232             	3.41970453e+02
233             	3.42015476e+02
234             	3.42066146e+02
235             	3.42106364e+02
236             	3.42157898e+02
237             	3.42212438e+02
238             	3.42270526e+02
239             	3.42318327e+02
240             	3.42374094e+02
241             	3.42416530e+02
242             	3.42467773e+02
243             	3.42523243e+02
244             	3.42580722e+02
245             	3.42616714e+02
246             	3.42664177e+02
247             	3.42699927e+02
248             	3.42744795e+02
249             	3.42793884e+02
250             	3.42845457e+02
251             	3.42898984e+02
252             	3.42932474e+02
253             	3.42974931e+02
254             	3.43021620e+02
255             	3.43053527e+02
256             	3.43093807e+02
257             	3.43140396e+02
258             	3.43171318e+02
259             	3.43209735e+02
260             	3.43252996e+02
261             	3.43277788e+02
262             	3.43312226e+02
263             	3.43352763e+02
264             	3.43399075e+02
265             	3.43444741e+02
266             	3.43476966e+02
267             	3.43520588e+02
268             	3.43567386e+02
269             	3.43598666e+02
270             	3.43636875e+02
271             	3.43680259e+02
272             	3.43708410e+02
273             	3.43746299e+02
274             	3.43787370e+02
275             	3.43829587e+02
276             	3.43856177e+02
277             	3.43890067e+02
278             	3.43927584e+02
279             	3.43951223e+02
280             	3.43985049e+02
281             	3.44022886e+02
282             	3.44045965e+02
283             	3.44077313e+02
284             	3.44114293e+02
285             	3.44153387e+02
286             	3.44175712e+02
287             	3.44209826e+02
288             	3.44227115e+02
289             	3.44255414e+02
290             	3.44289616e+02
291             	3.44327950e+02
292             	3.44367940e+02
293             	3.44391707e+02
294             	3.44422884e+02
295             	3.44459458e+02
296             	3.44480153e+02
297             	3.44508663e+02
298             	3.44542272e+02
299             	3.44560542e+02
300             	3.44587166e+02
301             	3.44619358e+02
302             	3.44654673e+02
303             	3.44672883e+02
304             	3.44699774e+02
305             	3.44730919e+02
306             	3.44765016e+02
307             	3.44802009e+02
308             	3.44840170e+02
309             	3.44880535e+02
310             	3.44896094e+02
311             	3.44921156e+02
312             	3.44950014e+02
313             	3.44966159e+02
314             	3.44990257e+02
315             	3.45018998e+02
316             	3.45033345e+02
317             	3.45056193e+02
318             	3.45083919e+02
319             	3.45097491e+02
320             	3.45119292e+02
321             	3.45146084e+02
322             	3.45176768e+02
323             	3.45189672e+02
324             	3.45210887e+02
325             	3.45236507e+02
326             	3.45265358e+02
327             	3.45278920e+02
328             	3.45300427e+02
329             	3.45325709e+02
330             	3.45353897e+02
331             	3.45366990e+02
332             	3.45387831e+02
333             	3.45412907e+02
334             	3.45443750e+02
335             	3.45454775e+02
336             	3.45474115e+02
337             	3.45498052e+02
338             	3.45508680e+02
339             	3.45527996e+02
340             	3.45551769e+02
341             	3.45561831e+02
342             	3.45580301e+02
343             	3.45603179e+02
344             	3.45612333e+02
345             	3.45630238e+02
346             	3.45652346e+02
347             	3.45679927e+02
348             	3.45688345e+02
349             	3.45705523e+02
350             	3.45726874e+02
351             	3.45752470e+02
352             	3.45760693e+02
353             	3.45777410e+02
354             	3.45798345e+02
355             	3.45805699e+02
356             	3.45821878e+02
357             	3.45842662e+02
358             	3.45849257e+02
359             	3.45864634e+02
360             	3.45884092e+02
361             	3.45909215e+02
362             	3.45914832e+02
363             	3.45929462e+02
364             	3.45948363e+02
365             	3.45971791e+02
366             	3.45977466e+02
367             	3.45991941e+02
368             	3.46010859e+02
369             	3.46016249e+02
370             	3.46030442e+02
371             	3.46049071e+02
372             	3.46054231e+02
373             	3.46068193e+02
374             	3.46086093e+02
375             	3.46109064e+02
376             	3.46113068e+02
377             	3.46126011e+02
378             	3.46143564e+02
379             	3.46147521e+02
380             	3.46160263e+02
381             	3.46177516e+02
382             	3.46181058e+02
383             	3.46193539e+02
384             	3.46210161e+02
385             	3.46213486e+02
386             	3.46225557e+02
387             	3.46241887e+02
388             	3.46244714e+02
389             	3.46256508e+02
390             	3.46272497e+02
391             	3.46274959e+02
392             	3.46286288e+02
393             	3.46302031e+02
394             	3.46304282e+02
395             	3.46315548e+02
396             	3.46330885e+02
397             	3.46351201e+02
398             	3.46352739e+02
399             	3.46363388e+02
400             	3.46378439e+02
401             	3.46399809e+02
402             	3.46400296e+02
403             	3.46410214e+02
404             	3.46424809e+02
405             	3.46425979e+02
406             	3.46435963e+02
407             	3.46450444e+02
408             	3.46451093e+02
409             	3.46460815e+02
410             	3.46474569e+02
411             	3.46493543e+02
412             	3.46493786e+02
413             	3.46503076e+02
414             	3.46516866e+02
415             	3.46516572e+02
416             	3.46525309e+02
417             	3.46538850e+02
418             	3.46538327e+02
419             	3.46546832e+02
420             	3.46559471e+02
421             	3.46578665e+02
422             	3.46577331e+02
423             	3.46585402e+02
424             	3.46597932e+02
425             	3.46597254e+02
426             	3.46605420e+02
427             	3.46618071e+02
428             	3.46636821e+02
429             	3.46635422e+02
430             	3.46643011e+02
431             	3.46655469e+02
432             	3.46654118e+02
433             	3.46661786e+02
434             	3.46673948e+02
435             	3.46672603e+02
436             	3.46679957e+02
437             	3.46691808e+02
438             	3.46690056e+02
439             	3.46697248e+02
440             	3.46708740e+02
441             	3.46707044e+02
442             	3.46714060e+02
443             	3.46725572e+02
444             	3.46723617e+02
445             	3.46730652e+02
446             	3.46741964e+02
447             	3.46739952e+02
448             	3.46746686e+02
449             	3.46757968e+02
450             	3.46755633e+02
451             	3.46762294e+02
452             	3.46773356e+02
453             	3.46770894e+02
454             	3.46777253e+02
455             	3.46788128e+02
456             	3.46785484e+02
457             	3.46791798e+02
458             	3.46802405e+02
459             	3.46818709e+02
460             	3.46815492e+02
461             	3.46821400e+02
462             	3.46832071e+02
463             	3.46829101e+02
464             	3.46834926e+02
465             	3.46845378e+02
466             	3.46842065e+02
467             	3.46847714e+02
468             	3.46857869e+02
469             	3.46854475e+02
470             	3.46859900e+02
471             	3.46869882e+02
472             	3.46866506e+02
473             	3.46871983e+02
474             	3.46881769e+02
475             	3.46878434e+02
476             	3.46883813e+02
477             	3.46893721e+02
478             	3.46890206e+02
479             	3.46895616e+02
480             	3.46905386e+02
481             	3.46901743e+02
482             	3.46906870e+02
483             	3.46916574e+02
484             	3.46912669e+02
485             	3.46917727e+02
486             	3.46927266e+02
487             	3.46923242e+02
488             	3.46928012e+02
489             	3.46937454e+02
490             	3.46933187e+02
491             	3.46937918e+02
492             	3.46947147e+02
493             	3.46942893e+02
494             	3.46947423e+02
495             	3.46956590e+02
496             	3.46952257e+02
497             	3.46956886e+02
498             	3.46965930e+02
499             	3.46961729e+02
500             	3.46966252e+02
501             	3.46975347e+02
502             	3.46971054e+02
503             	3.46975665e+02
504             	3.46984622e+02
505             	3.46980381e+02
506             	3.46984830e+02
507             	3.46993849e+02
508             	3.46989336e+02
509             	3.46993701e+02
510             	3.47002579e+02
511             	3.46997836e+02
512             	3.47001834e+02
513             	3.47010550e+02
514             	3.47005534e+02
515             	3.47009464e+02
516             	3.47017874e+02
517             	3.47012991e+02
518             	3.47016811e+02
519             	3.47025301e+02
520             	3.47020353e+02
521             	3.47024337e+02
522             	3.47032737e+02
523             	3.47027891e+02
524             	3.47031716e+02
525             	3.47040193e+02
526             	3.47035148e+02
527             	3.47039037e+02
528             	3.47047385e+02
529             	3.47042372e+02
530             	3.47046072e+02
531             	3.47054419e+02
532             	3.47049253e+02
533             	3.47052987e+02
534             	3.47061203e+02
535             	3.47055972e+02
536             	3.47059462e+02
537             	3.47067644e+02
538             	3.47062243e+02
539             	3.47065774e+02
540             	3.47073792e+02
541             	3.47068422e+02
542             	3.47071782e+02
543             	3.47079839e+02
544             	3.47074287e+02
545             	3.47077670e+02
546             	3.47085592e+02
547             	3.47080036e+02
548             	3.47083239e+02
549             	3.47091142e+02
550             	3.47085474e+02
551             	3.47088756e+02
552             	3.47096491e+02
553             	3.47091023e+02
554             	3.47094242e+02
555             	3.47102118e+02
556             	3.47096476e+02
557             	3.47099762e+02
558             	3.47107489e+02
559             	3.47101924e+02
560             	3.47105027e+02
561             	3.47112750e+02
562             	3.47107003e+02
563             	3.47110148e+02
564             	3.47117740e+02
565             	3.47111949e+02
566             	3.47114863e+02
567             	3.47122457e+02
568             	3.47116440e+02
569             	3.47119371e+02
570             	3.47126789e+02
571             	3.47120907e+02
572             	3.47123729e+02
573             	3.47131199e+02
574             	3.47125227e+02
575             	3.47128176e+02
576             	3.47135593e+02
577             	3.47129688e+02
578             	3.47132476e+02
579             	3.47139895e+02
580             	3.47133867e+02
581             	3.47136732e+02
582             	3.47144042e+02
583             	3.47138033e+02
584             	3.47140731e+02
585             	3.47148117e+02
586             	3.47141905e+02
587             	3.47144624e+02
588             	3.47151823e+02
589             	3.47145651e+02
590             	3.47148210e+02
591             	3.47155438e+02
592             	3.47149171e+02
593             	3.47151823e+02
594             	3.47158938e+02
595             	3.47152798e+02
596             	3.47155365e+02
597             	3.47162602e+02
598             	3.47156348e+02
599             	3.47159001e+02
600             	3.47166151e+02
601             	3.47159884e+02
602             	3.47162347e+02
603             	3.47169469e+02
604             	3.47163098e+02
605             	3.47165653e+02
606             	3.47172677e+02
607             	3.47166381e+02
608             	3.47168813e+02
609             	3.47175933e+02
610             	3.47169478e+02
611             	3.47171974e+02
612             	3.47178952e+02
613             	3.47172596e+02
614             	3.47174967e+02
615             	3.47182017e+02
616             	3.47175542e+02
617             	3.47177998e+02
618             	3.47184978e+02
619             	3.47178540e+02
620             	3.47180839e+02
621             	3.47187847e+02
