# Region        : cellZone component_2
# Cells         : 104
# Volume        : 1.89676797e-01
# Time          	volAverage(T)
1               	3.00198155e+02
2               	3.00394386e+02
3               	3.00575402e+02
4               	3.00745019e+02
5               	3.00908429e+02
6               	3.01066686e+02
7               	3.01220725e+02
8               	3.01370872e+02
9               	3.01516764e+02
10              	3.01660620e+02
11              	3.01803154e+02
12              	3.01944750e+02
13              	3.02080549e+02
14              	3.02208893e+02
15              	3.02329513e+02
16              	3.02448197e+02
17              	3.02569631e+02
18              	3.02696515e+02
19              	3.02818085e+02
20              	3.02931408e+02
21              	3.03040327e+02
22              	3.03146249e+02
23              	3.03254212e+02
24              	3.03360868e+02
25              	3.03465312e+02
26              	3.03567722e+02
27              	3.03666573e+02
28              	3.03765442e+02
29              	3.03861435e+02
30              	3.03955829e+02
31              	3.04056000e+02
32              	3.04153223e+02
33              	3.04240135e+02
34              	3.04306522e+02
35              	3.04360687e+02
36              	3.04420796e+02
37              	3.04489272e+02
38              	3.04559303e+02
39              	3.04628202e+02
40              	3.04697425e+02
41              	3.04769650e+02
42              	3.04837443e+02
43              	3.04901020e+02
44              	3.04961340e+02
45              	3.05018334e+02
46              	3.05074139e+02
47              	3.05128027e+02
48              	3.05182712e+02
49              	3.05238616e+02
50              	3.05296847e+02
51              	3.05353579e+02
52              	3.05410216e+02
53              	3.05469309e+02
54              	3.05529480e+02
55              	3.05588907e+02
56              	3.05641290e+02
57              	3.05683623e+02
58              	3.05726163e+02
59              	3.05767041e+02
60              	3.05804386e+02
61              	3.05838643e+02
62              	3.05866645e+02
63              	3.05891164e+02
64              	3.05912578e+02
65              	3.05930883e+02
66              	3.05949575e+02
67              	3.05970510e+02
68              	3.05993711e+02
69              	3.06019166e+02
70              	3.06048755e+02
71              	3.06073241e+02
72              	3.06095051e+02
73              	3.06114851e+02
74              	3.06133332e+02
75              	3.06151900e+02
76              	3.06168985e+02
77              	3.06182473e+02
78              	3.06193169e+02
79              	3.06203212e+02
80              	3.06212339e+02
81              	3.06224187e+02
82              	3.06239363e+02
83              	3.06258178e+02
84              	3.06281762e+02
85              	3.06297166e+02
86              	3.06299619e+02
87              	3.06300694e+02
88              	3.06304817e+02
89              	3.06309533e+02
90              	3.06309546e+02
91              	3.06304824e+02
92              	3.06298724e+02
93              	3.06293080e+02
94              	3.06285532e+02
95              	3.06278890e+02
96              	3.06277746e+02
97              	3.06281263e+02
98              	3.06292080e+02
99              	3.06306743e+02
100             	3.06318806e+02
101             	3.06326781e+02
102             	3.06331903e+02
103             	3.06335959e+02
104             	3.06339560e+02
105             	3.06342360e+02
106             	3.06342746e+02
107             	3.06340881e+02
108             	3.06335872e+02
109             	3.06328350e+02
110             	3.06319845e+02
111             	3.06311469e+02
112             	3.06305205e+02
113             	3.06301853e+02
114             	3.06301899e+02
115             	3.06304137e+02
116             	3.06308667e+02
117             	3.06314137e+02
118             	3.06321253e+02
119             	3.06328886e+02
120             	3.06339007e+02
121             	3.06346695e+02
122             	3.06355077e+02
123             	3.06362308e+02
124             	3.06367664e+02
125             	3.06371226e+02
126             	3.06374056e+02
127             	3.06376617e+02
128             	3.06379451e+02
129             	3.06382410e+02
130             	3.06385094e+02
131             	3.06387601e+02
132             	3.06390882e+02
133             	3.06395947e+02
134             	3.06403369e+02
135             	3.06414128e+02
136             	3.06427062e+02
137             	3.06437372e+02
138             	3.06449778e+02
139             	3.06461774e+02
140             	3.06472603e+02
141             	3.06481183e+02
142             	3.06488300e+02
143             	3.06494853e+02
144             	3.06502139e+02
145             	3.06510424e+02
146             	3.06518034e+02
147             	3.06525291e+02
148             	3.06533567e+02
149             	3.06542807e+02
150             	3.06552947e+02
151             	3.06563853e+02
152             	3.06575141e+02
153             	3.06586718e+02
154             	3.06598167e+02
155             	3.06609840e+02
156             	3.06621778e+02
157             	3.06633938e+02
158             	3.06645207e+02
159             	3.06656270e+02
160             	3.06666697e+02
161             	3.06676087e+02
162             	3.06684402e+02
163             	3.06691647e+02
164             	3.06697749e+02
165             	3.06702855e+02
166             	3.06706872e+02
167             	3.06710009e+02
168             	3.06712385e+02
169             	3.06713963e+02
170             	3.06714948e+02
171             	3.06715878e+02
172             	3.06716558e+02
173             	3.06717166e+02
174             	3.06718350e+02
175             	3.06719784e+02
176             	3.06721555e+02
177             	3.06724111e+02
178             	3.06727437e+02
179             	3.06731767e+02
180             	3.06737070e+02
181             	3.06741815e+02
182             	3.06747660e+02
183             	3.06753337e+02
184             	3.06759240e+02
185             	3.06765391e+02
186             	3.06772032e+02
187             	3.06778453e+02
188             	3.06784742e+02
189             	3.06790968e+02
190             	3.06797076e+02
191             	3.06802759e+02
192             	3.06808289e+02
193             	3.06813545e+02
194             	3.06818730e+02
195             	3.06824194e+02
196             	3.06829781e+02
197             	3.06835586e+02
198             	3.06841532e+02
199             	3.06847642e+02
200             	3.06853599e+02
201             	3.06858917e+02
202             	3.06863846e+02
203             	3.06868283e+02
204             	3.06872754e+02
205             	3.06877457e+02
206             	3.06882020e+02
207             	3.06886680e+02
208             	3.06891734e+02
209             	3.06897163e+02
210             	3.06901437e+02
211             	3.06905857e+02
212             	3.06910681e+02
213             	3.06915163e+02
214             	3.06919634e+02
215             	3.06924134e+02
216             	3.06928880e+02
217             	3.06933359e+02
218             	3.06937219e+02
219             	3.06940595e+02
220             	3.06944056e+02
221             	3.06947590e+02
222             	3.06951111e+02
223             	3.06954635e+02
224             	3.06958064e+02
225             	3.06961018e+02
226             	3.06963823e+02
227             	3.06966939e+02
228             	3.06970006e+02
229             	3.06972444e+02
230             	3.06974540e+02
231             	3.06976553e+02
232             	3.06978591e+02
233             	3.06980889e+02
234             	3.06983731e+02
235             	3.06986847e+02
236             	3.06990635e+02
237             	3.06995100e+02
238             	3.06999630e+02
239             	3.07003640e+02
240             	3.07008064e+02
241             	3.07011334e+02
242             	3.07014508e+02
243             	3.07017224e+02
244             	3.07019222e+02
245             	3.07020690e+02
246             	3.07021676e+02
247             	3.07023025e+02
248             	3.07024149e+02
249             	3.07025260e+02
250             	3.07026439e+02
251             	3.07028709e+02
252             	3.07029175e+02
253             	3.07029751e+02
254             	3.07031202e+02
255             	3.07033061e+02
256             	3.07035478e+02
257             	3.07037025e+02
258             	3.07039007e+02
259             	3.07040558e+02
260             	3.07042140e+02
261             	3.07043403e+02
262             	3.07044279e+02
263             	3.07044691e+02
264             	3.07044611e+02
265             	3.07044525e+02
266             	3.07044850e+02
267             	3.07045490e+02
268             	3.07046432e+02
269             	3.07047559e+02
270             	3.07048847e+02
271             	3.07050446e+02
272             	3.07052112e+02
273             	3.07053982e+02
274             	3.07056100e+02
275             	3.07058132e+02
276             	3.07060350e+02
277             	3.07062780e+02
278             	3.07065398e+02
279             	3.07068117e+02
280             	3.07070687e+02
281             	3.07073418e+02
282             	3.07076086e+02
283             	3.07078537e+02
284             	3.07080663e+02
285             	3.07082498e+02
286             	3.07084256e+02
287             	3.07085673e+02
288             	3.07086226e+02
289             	3.07086608e+02
290             	3.07086711e+02
291             	3.07086680e+02
292             	3.07086539e+02
293             	3.07086243e+02
294             	3.07085633e+02
295             	3.07084961e+02
296             	3.07084247e+02
297             	3.07083517e+02
298             	3.07083089e+02
299             	3.07083013e+02
300             	3.07083446e+02
301             	3.07084245e+02
302             	3.07085372e+02
303             	3.07086857e+02
304             	3.07088653e+02
305             	3.07090696e+02
306             	3.07092892e+02
307             	3.07095271e+02
308             	3.07097762e+02
309             	3.07100140e+02
310             	3.07102448e+02
311             	3.07104704e+02
312             	3.07106873e+02
313             	3.07108902e+02
314             	3.07110808e+02
315             	3.07112595e+02
316             	3.07114288e+02
317             	3.07115841e+02
318             	3.07117223e+02
319             	3.07118648e+02
320             	3.07119787e+02
321             	3.07120836e+02
322             	3.07121594e+02
323             	3.07122196e+02
324             	3.07122720e+02
325             	3.07123125e+02
326             	3.07123358e+02
327             	3.07123440e+02
328             	3.07123415e+02
329             	3.07123324e+02
330             	3.07123126e+02
331             	3.07123069e+02
332             	3.07123427e+02
333             	3.07123913e+02
334             	3.07124362e+02
335             	3.07125048e+02
336             	3.07125910e+02
337             	3.07126849e+02
338             	3.07127718e+02
339             	3.07128275e+02
340             	3.07128618e+02
341             	3.07128915e+02
342             	3.07129082e+02
343             	3.07129387e+02
344             	3.07129716e+02
345             	3.07129881e+02
346             	3.07130080e+02
347             	3.07130612e+02
348             	3.07131116e+02
349             	3.07131741e+02
350             	3.07132539e+02
351             	3.07133446e+02
352             	3.07134062e+02
353             	3.07134822e+02
354             	3.07135729e+02
355             	3.07136699e+02
356             	3.07137631e+02
357             	3.07138539e+02
358             	3.07139188e+02
359             	3.07139784e+02
360             	3.07140311e+02
361             	3.07140859e+02
362             	3.07141544e+02
363             	3.07142415e+02
364             	3.07143328e+02
365             	3.07144226e+02
366             	3.07145188e+02
367             	3.07145727e+02
368             	3.07146291e+02
369             	3.07146754e+02
370             	3.07147063e+02
371             	3.07146998e+02
372             	3.07146773e+02
373             	3.07146340e+02
374             	3.07145712e+02
375             	3.07144913e+02
376             	3.07144308e+02
377             	3.07143803e+02
378             	3.07143404e+02
379             	3.07142984e+02
380             	3.07142685e+02
381             	3.07142465e+02
382             	3.07142101e+02
383             	3.07141754e+02
384             	3.07141531e+02
385             	3.07141331e+02
386             	3.07141152e+02
387             	3.07141020e+02
388             	3.07141161e+02
389             	3.07141427e+02
390             	3.07141627e+02
391             	3.07141846e+02
392             	3.07142066e+02
393             	3.07142235e+02
394             	3.07142457e+02
395             	3.07142708e+02
396             	3.07143075e+02
397             	3.07143510e+02
398             	3.07143996e+02
399             	3.07144278e+02
400             	3.07144625e+02
401             	3.07144954e+02
402             	3.07145266e+02
403             	3.07145606e+02
404             	3.07146009e+02
405             	3.07146634e+02
406             	3.07147133e+02
407             	3.07147665e+02
408             	3.07148207e+02
409             	3.07148751e+02
410             	3.07149279e+02
411             	3.07149994e+02
412             	3.07150709e+02
413             	3.07151601e+02
414             	3.07152330e+02
415             	3.07152936e+02
416             	3.07153530e+02
417             	3.07154055e+02
418             	3.07154395e+02
419             	3.07154554e+02
420             	3.07154470e+02
421             	3.07154160e+02
422             	3.07153588e+02
423             	3.07152771e+02
424             	3.07151714e+02
425             	3.07150481e+02
426             	3.07149222e+02
427             	3.07148169e+02
428             	3.07147285e+02
429             	3.07146424e+02
430             	3.07145627e+02
431             	3.07144945e+02
432             	3.07144193e+02
433             	3.07143566e+02
434             	3.07143018e+02
435             	3.07142547e+02
436             	3.07142182e+02
437             	3.07142001e+02
438             	3.07142121e+02
439             	3.07142527e+02
440             	3.07143056e+02
441             	3.07143788e+02
442             	3.07144707e+02
443             	3.07145663e+02
444             	3.07146766e+02
445             	3.07147975e+02
446             	3.07149244e+02
447             	3.07150469e+02
448             	3.07151688e+02
449             	3.07152839e+02
450             	3.07153901e+02
451             	3.07154882e+02
452             	3.07155642e+02
453             	3.07156301e+02
454             	3.07156823e+02
455             	3.07157208e+02
456             	3.07157388e+02
457             	3.07157447e+02
458             	3.07157351e+02
459             	3.07157128e+02
460             	3.07156785e+02
461             	3.07156328e+02
462             	3.07155762e+02
463             	3.07155158e+02
464             	3.07154564e+02
465             	3.07153886e+02
466             	3.07153303e+02
467             	3.07152692e+02
468             	3.07152106e+02
469             	3.07151551e+02
470             	3.07151008e+02
471             	3.07150521e+02
472             	3.07150081e+02
473             	3.07149787e+02
474             	3.07149616e+02
475             	3.07149609e+02
476             	3.07149865e+02
477             	3.07150294e+02
478             	3.07150656e+02
479             	3.07151128e+02
480             	3.07151502e+02
481             	3.07151918e+02
482             	3.07152327e+02
483             	3.07152718e+02
484             	3.07153083e+02
485             	3.07153395e+02
486             	3.07153672e+02
487             	3.07153998e+02
488             	3.07154402e+02
489             	3.07154728e+02
490             	3.07154999e+02
491             	3.07155273e+02
492             	3.07155647e+02
493             	3.07155882e+02
494             	3.07156078e+02
495             	3.07156271e+02
496             	3.07156452e+02
497             	3.07156582e+02
498             	3.07156493e+02
499             	3.07156305e+02
500             	3.07156112e+02
501             	3.07155884e+02
502             	3.07155653e+02
503             	3.07155472e+02
504             	3.07155404e+02
505             	3.07155381e+02
506             	3.07155304e+02
507             	3.07155130e+02
508             	3.07154749e+02
509             	3.07154467e+02
510             	3.07154156e+02
511             	3.07153847e+02
512             	3.07153519e+02
513             	3.07153223e+02
514             	3.07152969e+02
515             	3.07152768e+02
516             	3.07152751e+02
517             	3.07152705e+02
518             	3.07152659e+02
519             	3.07152645e+02
520             	3.07152644e+02
521             	3.07152782e+02
522             	3.07152933e+02
523             	3.07153255e+02
524             	3.07153610e+02
525             	3.07153901e+02
526             	3.07154189e+02
527             	3.07154532e+02
528             	3.07154892e+02
529             	3.07155272e+02
530             	3.07155691e+02
531             	3.07156094e+02
532             	3.07156447e+02
533             	3.07156736e+02
534             	3.07156984e+02
535             	3.07157190e+02
536             	3.07157328e+02
537             	3.07157455e+02
538             	3.07157454e+02
539             	3.07157410e+02
540             	3.07157399e+02
541             	3.07157336e+02
542             	3.07157224e+02
543             	3.07157073e+02
544             	3.07156889e+02
545             	3.07156676e+02
546             	3.07156440e+02
547             	3.07156225e+02
548             	3.07155993e+02
549             	3.07155763e+02
550             	3.07155607e+02
551             	3.07155476e+02
552             	3.07155388e+02
553             	3.07155311e+02
554             	3.07155236e+02
555             	3.07155151e+02
556             	3.07155118e+02
557             	3.07155089e+02
558             	3.07155059e+02
559             	3.07155051e+02
560             	3.07155067e+02
561             	3.07155109e+02
562             	3.07155101e+02
563             	3.07155012e+02
564             	3.07154948e+02
565             	3.07154901e+02
566             	3.07154870e+02
567             	3.07154860e+02
568             	3.07154874e+02
569             	3.07154849e+02
570             	3.07154805e+02
571             	3.07154799e+02
572             	3.07154818e+02
573             	3.07154867e+02
574             	3.07154965e+02
575             	3.07155088e+02
576             	3.07155209e+02
577             	3.07155290e+02
578             	3.07155374e+02
579             	3.07155457e+02
580             	3.07155542e+02
581             	3.07155636e+02
582             	3.07155686e+02
583             	3.07155763e+02
584             	3.07155842e+02
585             	3.07155923e+02
586             	3.07156016e+02
587             	3.07156121e+02
588             	3.07156231e+02
589             	3.07156330e+02
590             	3.07156416e+02
591             	3.07156492e+02
592             	3.07156559e+02
593             	3.07156645e+02
594             	3.07156702e+02
595             	3.07156704e+02
596             	3.07156680e+02
597             	3.07156667e+02
598             	3.07156629e+02
599             	3.07156590e+02
600             	3.07156532e+02
601             	3.07156457e+02
602             	3.07156369e+02
603             	3.07156272e+02
604             	3.07156172e+02
605             	3.07156103e+02
606             	3.07156002e+02
607             	3.07155892e+02
608             	3.07155765e+02
609             	3.07155612e+02
610             	3.07155445e+02
611             	3.07155226e+02
612             	3.07155038e+02
613             	3.07154874e+02
614             	3.07154725e+02
615             	3.07154600e+02
616             	3.07154524e+02
617             	3.07154475e+02
618             	3.07154455e+02
619             	3.07154471e+02
620             	3.07154558e+02
621             	3.07154663e+02
