# Region        : cellZone component_1
# Cells         : 89
# Volume        : 1.69416344e-01
# Time          	volAverage(T)
1               	3.00988512e+02
2               	3.01960512e+02
3               	3.02833564e+02
4               	3.03644653e+02
5               	3.04428430e+02
6               	3.05194992e+02
7               	3.05947449e+02
8               	3.06687213e+02
9               	3.07426345e+02
10              	3.08137522e+02
11              	3.08809742e+02
12              	3.09449076e+02
13              	3.10070293e+02
14              	3.10679313e+02
15              	3.11271117e+02
16              	3.11849697e+02
17              	3.12412626e+02
18              	3.12981148e+02
19              	3.13547782e+02
20              	3.14093704e+02
21              	3.14652187e+02
22              	3.15214746e+02
23              	3.15760792e+02
24              	3.16288978e+02
25              	3.16809630e+02
26              	3.17321459e+02
27              	3.17815617e+02
28              	3.18307511e+02
29              	3.18725570e+02
30              	3.19087307e+02
31              	3.19389389e+02
32              	3.19670571e+02
33              	3.19941333e+02
34              	3.20211646e+02
35              	3.20470758e+02
36              	3.20707798e+02
37              	3.20937943e+02
38              	3.21184183e+02
39              	3.21486575e+02
40              	3.21811311e+02
41              	3.22144926e+02
42              	3.22481631e+02
43              	3.22813684e+02
44              	3.23141498e+02
45              	3.23485992e+02
46              	3.23722693e+02
47              	3.23861043e+02
48              	3.23955615e+02
49              	3.24050500e+02
50              	3.24127109e+02
51              	3.24204213e+02
52              	3.24299237e+02
53              	3.24469373e+02
54              	3.24672466e+02
55              	3.24881844e+02
56              	3.25085748e+02
57              	3.25295475e+02
58              	3.25498664e+02
59              	3.25683901e+02
60              	3.25882500e+02
61              	3.26064902e+02
62              	3.26255829e+02
63              	3.26445011e+02
64              	3.26609627e+02
65              	3.26720973e+02
66              	3.26767003e+02
67              	3.26780124e+02
68              	3.26819202e+02
69              	3.26929353e+02
70              	3.27046495e+02
71              	3.27158966e+02
72              	3.27270780e+02
73              	3.27379493e+02
74              	3.27479505e+02
75              	3.27579080e+02
76              	3.27656033e+02
77              	3.27739735e+02
78              	3.27821271e+02
79              	3.27900054e+02
80              	3.27980673e+02
81              	3.28069482e+02
82              	3.28165330e+02
83              	3.28250575e+02
84              	3.28338271e+02
85              	3.28426140e+02
86              	3.28510518e+02
87              	3.28589095e+02
88              	3.28661546e+02
89              	3.28732797e+02
90              	3.28800962e+02
91              	3.28867414e+02
92              	3.28932762e+02
93              	3.29001542e+02
94              	3.29070681e+02
95              	3.29133158e+02
96              	3.29197807e+02
97              	3.29263422e+02
98              	3.29330966e+02
99              	3.29398606e+02
100             	3.29470527e+02
101             	3.29551207e+02
102             	3.29644151e+02
103             	3.29747882e+02
104             	3.29858838e+02
105             	3.29968645e+02
106             	3.30060185e+02
107             	3.30135777e+02
108             	3.30189000e+02
109             	3.30233803e+02
110             	3.30275763e+02
111             	3.30310788e+02
112             	3.30334645e+02
113             	3.30348806e+02
114             	3.30362314e+02
115             	3.30381748e+02
116             	3.30403602e+02
117             	3.30434764e+02
118             	3.30476581e+02
119             	3.30534773e+02
120             	3.30597661e+02
121             	3.30673257e+02
122             	3.30747058e+02
123             	3.30822595e+02
124             	3.30885572e+02
125             	3.30938248e+02
126             	3.30971068e+02
127             	3.31016531e+02
128             	3.31072475e+02
129             	3.31127418e+02
130             	3.31175383e+02
131             	3.31218100e+02
132             	3.31269281e+02
133             	3.31312055e+02
134             	3.31363927e+02
135             	3.31420784e+02
136             	3.31506958e+02
137             	3.31572632e+02
138             	3.31608076e+02
139             	3.31630341e+02
140             	3.31671682e+02
141             	3.31713508e+02
142             	3.31734773e+02
143             	3.31755201e+02
144             	3.31771259e+02
145             	3.31788460e+02
146             	3.31805068e+02
147             	3.31821293e+02
148             	3.31850061e+02
149             	3.31874961e+02
150             	3.31908853e+02
151             	3.31945971e+02
152             	3.31996375e+02
153             	3.32053424e+02
154             	3.32120019e+02
155             	3.32179144e+02
156             	3.32232690e+02
157             	3.32273262e+02
158             	3.32313851e+02
159             	3.32356382e+02
160             	3.32396043e+02
161             	3.32430243e+02
162             	3.32459551e+02
163             	3.32489007e+02
164             	3.32520028e+02
165             	3.32554122e+02
166             	3.32590026e+02
167             	3.32631193e+02
168             	3.32681305e+02
169             	3.32727286e+02
170             	3.32777375e+02
171             	3.32833371e+02
172             	3.32891189e+02
173             	3.32947552e+02
174             	3.32987364e+02
175             	3.33031735e+02
176             	3.33075506e+02
177             	3.33118276e+02
178             	3.33159530e+02
179             	3.33200179e+02
180             	3.33239173e+02
181             	3.33270002e+02
182             	3.33300100e+02
183             	3.33331957e+02
184             	3.33363278e+02
185             	3.33400495e+02
186             	3.33444827e+02
187             	3.33477402e+02
188             	3.33520142e+02
189             	3.33566114e+02
190             	3.33612817e+02
191             	3.33654803e+02
192             	3.33695557e+02
193             	3.33732672e+02
194             	3.33760002e+02
195             	3.33785690e+02
196             	3.33808069e+02
197             	3.33827109e+02
198             	3.33844939e+02
199             	3.33866195e+02
200             	3.33891729e+02
201             	3.33920338e+02
202             	3.33940201e+02
203             	3.33963922e+02
204             	3.33990367e+02
205             	3.34016385e+02
206             	3.34042429e+02
207             	3.34071553e+02
208             	3.34101008e+02
209             	3.34129730e+02
210             	3.34158206e+02
211             	3.34186830e+02
212             	3.34217188e+02
213             	3.34232952e+02
214             	3.34258846e+02
215             	3.34280810e+02
216             	3.34298307e+02
217             	3.34315385e+02
218             	3.34333003e+02
219             	3.34350844e+02
220             	3.34363447e+02
221             	3.34379851e+02
222             	3.34396957e+02
223             	3.34411499e+02
224             	3.34424877e+02
225             	3.34437350e+02
226             	3.34450891e+02
227             	3.34466282e+02
228             	3.34482742e+02
229             	3.34502847e+02
230             	3.34522727e+02
231             	3.34543588e+02
232             	3.34567037e+02
233             	3.34591898e+02
234             	3.34615392e+02
235             	3.34643206e+02
236             	3.34660612e+02
237             	3.34674277e+02
238             	3.34687566e+02
239             	3.34701360e+02
240             	3.34714971e+02
241             	3.34722107e+02
242             	3.34729001e+02
243             	3.34734463e+02
244             	3.34737902e+02
245             	3.34739824e+02
246             	3.34743084e+02
247             	3.34748029e+02
248             	3.34749725e+02
249             	3.34753310e+02
250             	3.34758227e+02
251             	3.34764001e+02
252             	3.34770385e+02
253             	3.34778199e+02
254             	3.34788357e+02
255             	3.34799687e+02
256             	3.34815791e+02
257             	3.34828259e+02
258             	3.34839615e+02
259             	3.34852103e+02
260             	3.34865260e+02
261             	3.34878157e+02
262             	3.34890150e+02
263             	3.34902169e+02
264             	3.34912202e+02
265             	3.34920166e+02
266             	3.34925894e+02
267             	3.34930534e+02
268             	3.34934598e+02
269             	3.34938566e+02
270             	3.34938791e+02
271             	3.34941965e+02
272             	3.34946173e+02
273             	3.34949086e+02
274             	3.34950451e+02
275             	3.34952248e+02
276             	3.34955185e+02
277             	3.34958879e+02
278             	3.34963777e+02
279             	3.34972435e+02
280             	3.34980722e+02
281             	3.34989754e+02
282             	3.34999671e+02
283             	3.35009349e+02
284             	3.35019051e+02
285             	3.35027700e+02
286             	3.35036509e+02
287             	3.35044002e+02
288             	3.35049778e+02
289             	3.35053486e+02
290             	3.35056048e+02
291             	3.35059505e+02
292             	3.35063141e+02
293             	3.35065615e+02
294             	3.35068737e+02
295             	3.35071283e+02
296             	3.35074286e+02
297             	3.35077704e+02
298             	3.35081149e+02
299             	3.35084391e+02
300             	3.35088729e+02
301             	3.35093856e+02
302             	3.35099773e+02
303             	3.35106521e+02
304             	3.35113697e+02
305             	3.35121207e+02
306             	3.35130426e+02
307             	3.35138285e+02
308             	3.35145321e+02
309             	3.35151982e+02
310             	3.35158236e+02
311             	3.35163932e+02
312             	3.35170023e+02
313             	3.35175908e+02
314             	3.35178500e+02
315             	3.35180778e+02
316             	3.35183076e+02
317             	3.35185143e+02
318             	3.35186754e+02
319             	3.35186141e+02
320             	3.35186647e+02
321             	3.35187687e+02
322             	3.35189083e+02
323             	3.35190937e+02
324             	3.35193857e+02
325             	3.35196827e+02
326             	3.35199979e+02
327             	3.35203346e+02
328             	3.35207239e+02
329             	3.35211755e+02
330             	3.35216916e+02
331             	3.35222431e+02
332             	3.35227912e+02
333             	3.35233219e+02
334             	3.35238062e+02
335             	3.35242921e+02
336             	3.35247724e+02
337             	3.35252146e+02
338             	3.35256836e+02
339             	3.35260172e+02
340             	3.35263555e+02
341             	3.35265653e+02
342             	3.35267271e+02
343             	3.35268449e+02
344             	3.35269614e+02
345             	3.35271039e+02
346             	3.35272314e+02
347             	3.35272884e+02
348             	3.35274347e+02
349             	3.35276225e+02
350             	3.35278033e+02
351             	3.35280271e+02
352             	3.35282545e+02
353             	3.35285038e+02
354             	3.35287866e+02
355             	3.35290984e+02
356             	3.35294394e+02
357             	3.35297812e+02
358             	3.35301149e+02
359             	3.35304482e+02
360             	3.35307762e+02
361             	3.35311074e+02
362             	3.35314310e+02
363             	3.35317386e+02
364             	3.35319964e+02
365             	3.35322292e+02
366             	3.35324272e+02
367             	3.35325783e+02
368             	3.35326963e+02
369             	3.35327767e+02
370             	3.35328402e+02
371             	3.35328908e+02
372             	3.35329275e+02
373             	3.35329773e+02
374             	3.35330283e+02
375             	3.35330863e+02
376             	3.35331428e+02
377             	3.35332127e+02
378             	3.35332959e+02
379             	3.35333983e+02
380             	3.35335347e+02
381             	3.35336679e+02
382             	3.35337964e+02
383             	3.35339165e+02
384             	3.35340674e+02
385             	3.35342682e+02
386             	3.35344758e+02
387             	3.35346524e+02
388             	3.35348233e+02
389             	3.35349859e+02
390             	3.35351389e+02
391             	3.35352841e+02
392             	3.35354279e+02
393             	3.35355951e+02
394             	3.35357448e+02
395             	3.35358883e+02
396             	3.35360116e+02
397             	3.35361429e+02
398             	3.35362770e+02
399             	3.35364133e+02
400             	3.35365547e+02
401             	3.35367186e+02
402             	3.35368413e+02
403             	3.35369157e+02
404             	3.35369599e+02
405             	3.35369897e+02
406             	3.35370171e+02
407             	3.35370514e+02
408             	3.35370800e+02
409             	3.35371031e+02
410             	3.35370879e+02
411             	3.35370985e+02
412             	3.35370990e+02
413             	3.35371227e+02
414             	3.35371572e+02
415             	3.35372063e+02
416             	3.35372687e+02
417             	3.35373692e+02
418             	3.35374484e+02
419             	3.35375262e+02
420             	3.35376235e+02
421             	3.35377346e+02
422             	3.35378532e+02
423             	3.35379648e+02
424             	3.35380684e+02
425             	3.35381585e+02
426             	3.35382521e+02
427             	3.35383400e+02
428             	3.35384263e+02
429             	3.35385027e+02
430             	3.35385612e+02
431             	3.35386086e+02
432             	3.35386538e+02
433             	3.35387091e+02
434             	3.35387726e+02
435             	3.35388338e+02
436             	3.35388891e+02
437             	3.35389391e+02
438             	3.35389854e+02
439             	3.35390227e+02
440             	3.35390508e+02
441             	3.35390765e+02
442             	3.35391082e+02
443             	3.35391443e+02
444             	3.35391822e+02
445             	3.35392210e+02
446             	3.35392509e+02
447             	3.35392775e+02
448             	3.35392991e+02
449             	3.35393166e+02
450             	3.35393354e+02
451             	3.35393615e+02
452             	3.35393907e+02
453             	3.35394187e+02
454             	3.35394445e+02
455             	3.35394722e+02
456             	3.35395051e+02
457             	3.35395447e+02
458             	3.35395862e+02
459             	3.35396317e+02
460             	3.35396791e+02
461             	3.35397246e+02
462             	3.35397680e+02
463             	3.35398073e+02
464             	3.35398426e+02
465             	3.35398760e+02
466             	3.35399095e+02
467             	3.35399411e+02
468             	3.35399706e+02
469             	3.35399968e+02
470             	3.35400191e+02
471             	3.35400412e+02
472             	3.35400663e+02
473             	3.35400884e+02
474             	3.35401155e+02
475             	3.35401374e+02
476             	3.35401571e+02
477             	3.35401778e+02
478             	3.35401991e+02
479             	3.35402182e+02
480             	3.35402348e+02
481             	3.35402473e+02
482             	3.35402557e+02
483             	3.35402682e+02
484             	3.35402823e+02
485             	3.35402972e+02
486             	3.35403112e+02
487             	3.35403248e+02
488             	3.35403390e+02
489             	3.35403543e+02
490             	3.35403701e+02
491             	3.35403855e+02
492             	3.35404022e+02
493             	3.35404200e+02
494             	3.35404382e+02
495             	3.35404565e+02
496             	3.35404749e+02
497             	3.35404934e+02
498             	3.35405120e+02
499             	3.35405311e+02
500             	3.35405489e+02
501             	3.35405669e+02
502             	3.35405846e+02
503             	3.35406010e+02
504             	3.35406191e+02
505             	3.35406332e+02
506             	3.35406447e+02
507             	3.35406554e+02
508             	3.35406655e+02
509             	3.35406751e+02
510             	3.35406841e+02
511             	3.35406925e+02
512             	3.35406999e+02
513             	3.35407072e+02
514             	3.35407145e+02
515             	3.35407214e+02
516             	3.35407279e+02
517             	3.35407350e+02
518             	3.35407430e+02
519             	3.35407499e+02
520             	3.35407568e+02
521             	3.35407615e+02
522             	3.35407687e+02
523             	3.35407769e+02
524             	3.35407848e+02
525             	3.35407928e+02
526             	3.35408010e+02
527             	3.35408094e+02
528             	3.35408185e+02
529             	3.35408279e+02
530             	3.35408381e+02
531             	3.35408481e+02
532             	3.35408580e+02
533             	3.35408679e+02
534             	3.35408771e+02
535             	3.35408855e+02
536             	3.35408927e+02
537             	3.35409000e+02
538             	3.35409070e+02
539             	3.35409133e+02
540             	3.35409198e+02
541             	3.35409255e+02
542             	3.35409311e+02
543             	3.35409371e+02
544             	3.35409434e+02
545             	3.35409497e+02
546             	3.35409548e+02
547             	3.35409592e+02
548             	3.35409631e+02
549             	3.35409667e+02
550             	3.35409695e+02
551             	3.35409718e+02
552             	3.35409750e+02
553             	3.35409777e+02
554             	3.35409801e+02
555             	3.35409827e+02
556             	3.35409854e+02
557             	3.35409890e+02
558             	3.35409920e+02
559             	3.35409953e+02
560             	3.35409990e+02
561             	3.35410027e+02
562             	3.35410053e+02
563             	3.35410074e+02
564             	3.35410100e+02
565             	3.35410115e+02
566             	3.35410141e+02
567             	3.35410173e+02
568             	3.35410210e+02
569             	3.35410244e+02
570             	3.35410268e+02
571             	3.35410305e+02
572             	3.35410345e+02
573             	3.35410385e+02
574             	3.35410424e+02
575             	3.35410471e+02
576             	3.35410519e+02
577             	3.35410553e+02
578             	3.35410585e+02
579             	3.35410613e+02
580             	3.35410638e+02
581             	3.35410665e+02
582             	3.35410689e+02
583             	3.35410712e+02
584             	3.35410741e+02
585             	3.35410760e+02
586             	3.35410774e+02
587             	3.35410781e+02
588             	3.35410785e+02
589             	3.35410787e+02
590             	3.35410783e+02
591             	3.35410784e+02
592             	3.35410791e+02
593             	3.35410802e+02
594             	3.35410814e+02
595             	3.35410798e+02
596             	3.35410808e+02
597             	3.35410817e+02
598             	3.35410823e+02
599             	3.35410828e+02
600             	3.35410836e+02
601             	3.35410847e+02
602             	3.35410863e+02
603             	3.35410888e+02
604             	3.35410921e+02
605             	3.35410950e+02
606             	3.35410980e+02
607             	3.35411036e+02
608             	3.35411083e+02
609             	3.35411125e+02
610             	3.35411169e+02
611             	3.35411204e+02
612             	3.35411232e+02
613             	3.35411258e+02
614             	3.35411279e+02
615             	3.35411291e+02
616             	3.35411299e+02
617             	3.35411304e+02
618             	3.35411304e+02
619             	3.35411302e+02
620             	3.35411300e+02
621             	3.35411278e+02
