# Region        : cellZone component_2
# Cells         : 153
# Volume        : 2.84769895e-01
# Time          	volAverage(T)
1               	3.05505467e+02
2               	3.10840906e+02
3               	3.14968405e+02
4               	3.18291903e+02
5               	3.21518918e+02
6               	3.24836481e+02
7               	3.28085738e+02
8               	3.31155971e+02
9               	3.34021066e+02
10              	3.36738679e+02
11              	3.39375292e+02
12              	3.41942508e+02
13              	3.44492891e+02
14              	3.47025811e+02
15              	3.49491780e+02
16              	3.51860919e+02
17              	3.54177000e+02
18              	3.56451269e+02
19              	3.58726528e+02
20              	3.60976836e+02
21              	3.62876054e+02
22              	3.64400702e+02
23              	3.65960289e+02
24              	3.67437576e+02
25              	3.68880498e+02
26              	3.70490226e+02
27              	3.72072784e+02
28              	3.73545296e+02
29              	3.74914443e+02
30              	3.76196612e+02
31              	3.77391977e+02
32              	3.78477373e+02
33              	3.79432684e+02
34              	3.80275047e+02
35              	3.81019961e+02
36              	3.81688458e+02
37              	3.82366465e+02
38              	3.83116859e+02
39              	3.84025806e+02
40              	3.84884558e+02
41              	3.85635876e+02
42              	3.86284874e+02
43              	3.86791166e+02
44              	3.87183040e+02
45              	3.87603817e+02
46              	3.88006361e+02
47              	3.88326730e+02
48              	3.88572261e+02
49              	3.88768119e+02
50              	3.88933614e+02
51              	3.89091644e+02
52              	3.89261094e+02
53              	3.89450585e+02
54              	3.89668092e+02
55              	3.89920844e+02
56              	3.90236324e+02
57              	3.90608643e+02
58              	3.91011628e+02
59              	3.91434938e+02
60              	3.91806717e+02
61              	3.92105184e+02
62              	3.92360975e+02
63              	3.92566268e+02
64              	3.92705321e+02
65              	3.92741077e+02
66              	3.92666737e+02
67              	3.92492704e+02
68              	3.92317450e+02
69              	3.92159669e+02
70              	3.92043335e+02
71              	3.92021023e+02
72              	3.92112951e+02
73              	3.92288266e+02
74              	3.92529878e+02
75              	3.92769276e+02
76              	3.92961135e+02
77              	3.93088270e+02
78              	3.93164626e+02
79              	3.93202181e+02
80              	3.93186244e+02
81              	3.93103366e+02
82              	3.92987443e+02
83              	3.92845907e+02
84              	3.92680466e+02
85              	3.92494772e+02
86              	3.92365038e+02
87              	3.92322980e+02
88              	3.92377781e+02
89              	3.92528783e+02
90              	3.92749382e+02
91              	3.92985825e+02
92              	3.93175732e+02
93              	3.93271231e+02
94              	3.93308543e+02
95              	3.93280420e+02
96              	3.93181385e+02
97              	3.93031055e+02
98              	3.92859644e+02
99              	3.92683431e+02
100             	3.92511401e+02
101             	3.92358213e+02
102             	3.92203359e+02
103             	3.92101512e+02
104             	3.92059893e+02
105             	3.92102002e+02
106             	3.92238647e+02
107             	3.92452384e+02
108             	3.92718376e+02
109             	3.92983524e+02
110             	3.93224189e+02
111             	3.93380984e+02
112             	3.93472267e+02
113             	3.93477633e+02
114             	3.93380071e+02
115             	3.93206965e+02
116             	3.92990221e+02
117             	3.92770491e+02
118             	3.92627681e+02
119             	3.92593630e+02
120             	3.92637702e+02
121             	3.92763077e+02
122             	3.92951110e+02
123             	3.93177916e+02
124             	3.93373480e+02
125             	3.93540254e+02
126             	3.93606211e+02
127             	3.93560922e+02
128             	3.93447167e+02
129             	3.93281938e+02
130             	3.93085746e+02
131             	3.92875843e+02
132             	3.92688174e+02
133             	3.92560196e+02
134             	3.92487900e+02
135             	3.92483016e+02
136             	3.92553896e+02
137             	3.92694033e+02
138             	3.92883560e+02
139             	3.93088297e+02
140             	3.93301765e+02
141             	3.93503451e+02
142             	3.93664680e+02
143             	3.93763836e+02
144             	3.93812480e+02
145             	3.93810671e+02
146             	3.93783348e+02
147             	3.93754149e+02
148             	3.93738606e+02
149             	3.93732328e+02
150             	3.93729679e+02
151             	3.93735738e+02
152             	3.93751489e+02
153             	3.93780582e+02
154             	3.93826211e+02
155             	3.93888645e+02
156             	3.93966206e+02
157             	3.94057594e+02
158             	3.94167564e+02
159             	3.94296417e+02
160             	3.94446376e+02
161             	3.94603998e+02
162             	3.94749137e+02
163             	3.94887550e+02
164             	3.95053553e+02
165             	3.95240916e+02
166             	3.95403111e+02
167             	3.95541713e+02
168             	3.95637419e+02
169             	3.95681213e+02
170             	3.95675225e+02
171             	3.95638355e+02
172             	3.95581242e+02
173             	3.95522060e+02
174             	3.95482152e+02
175             	3.95457611e+02
176             	3.95466660e+02
177             	3.95514888e+02
178             	3.95596615e+02
179             	3.95712084e+02
180             	3.95862737e+02
181             	3.96044545e+02
182             	3.96245048e+02
183             	3.96417409e+02
184             	3.96558388e+02
185             	3.96680704e+02
186             	3.96767651e+02
187             	3.96795860e+02
188             	3.96773809e+02
189             	3.96722880e+02
190             	3.96649373e+02
191             	3.96559923e+02
192             	3.96463050e+02
193             	3.96378799e+02
194             	3.96314072e+02
195             	3.96275253e+02
196             	3.96271987e+02
197             	3.96307248e+02
198             	3.96373600e+02
199             	3.96464146e+02
200             	3.96588394e+02
201             	3.96716723e+02
202             	3.96850456e+02
203             	3.96978230e+02
204             	3.97076396e+02
205             	3.97130894e+02
206             	3.97133132e+02
207             	3.97094311e+02
208             	3.97014160e+02
209             	3.96911033e+02
210             	3.96805490e+02
211             	3.96722042e+02
212             	3.96649523e+02
213             	3.96603016e+02
214             	3.96590703e+02
215             	3.96614732e+02
216             	3.96680846e+02
217             	3.96787499e+02
218             	3.96932791e+02
219             	3.97101579e+02
220             	3.97281306e+02
221             	3.97435861e+02
222             	3.97554434e+02
223             	3.97634918e+02
224             	3.97675041e+02
225             	3.97683391e+02
226             	3.97660550e+02
227             	3.97618045e+02
228             	3.97571386e+02
229             	3.97512270e+02
230             	3.97443303e+02
231             	3.97357812e+02
232             	3.97252730e+02
233             	3.97135314e+02
234             	3.97023750e+02
235             	3.96939971e+02
236             	3.96888434e+02
237             	3.96878657e+02
238             	3.96904742e+02
239             	3.96961535e+02
240             	3.97035288e+02
241             	3.97110988e+02
242             	3.97174386e+02
243             	3.97229101e+02
244             	3.97278236e+02
245             	3.97321910e+02
246             	3.97363183e+02
247             	3.97388051e+02
248             	3.97409947e+02
249             	3.97434345e+02
250             	3.97452762e+02
251             	3.97456337e+02
252             	3.97447549e+02
253             	3.97432826e+02
254             	3.97418362e+02
255             	3.97408935e+02
256             	3.97406146e+02
257             	3.97416973e+02
258             	3.97438264e+02
259             	3.97458630e+02
260             	3.97474696e+02
261             	3.97488074e+02
262             	3.97502846e+02
263             	3.97528034e+02
264             	3.97553871e+02
265             	3.97589615e+02
266             	3.97642223e+02
267             	3.97707048e+02
268             	3.97773278e+02
269             	3.97835453e+02
270             	3.97890741e+02
271             	3.97937120e+02
272             	3.97981036e+02
273             	3.98016881e+02
274             	3.98038643e+02
275             	3.98054808e+02
276             	3.98064263e+02
277             	3.98070703e+02
278             	3.98065580e+02
279             	3.98060744e+02
280             	3.98058892e+02
281             	3.98056978e+02
282             	3.98055078e+02
283             	3.98057129e+02
284             	3.98062579e+02
285             	3.98075440e+02
286             	3.98095970e+02
287             	3.98119649e+02
288             	3.98164508e+02
289             	3.98219249e+02
290             	3.98258108e+02
291             	3.98295860e+02
292             	3.98340976e+02
293             	3.98393661e+02
294             	3.98446341e+02
295             	3.98484566e+02
296             	3.98509559e+02
297             	3.98516694e+02
298             	3.98505003e+02
299             	3.98475892e+02
300             	3.98424318e+02
301             	3.98360956e+02
302             	3.98304070e+02
303             	3.98276159e+02
304             	3.98264720e+02
305             	3.98280653e+02
306             	3.98329160e+02
307             	3.98405731e+02
308             	3.98478628e+02
309             	3.98549255e+02
310             	3.98613765e+02
311             	3.98654199e+02
312             	3.98667096e+02
313             	3.98653676e+02
314             	3.98625471e+02
315             	3.98588973e+02
316             	3.98552610e+02
317             	3.98523843e+02
318             	3.98512155e+02
319             	3.98522572e+02
320             	3.98544479e+02
321             	3.98583648e+02
322             	3.98639980e+02
323             	3.98706117e+02
324             	3.98780837e+02
325             	3.98855894e+02
326             	3.98925552e+02
327             	3.98978022e+02
328             	3.99013073e+02
329             	3.99033985e+02
330             	3.99043837e+02
331             	3.99044694e+02
332             	3.99037269e+02
333             	3.99029478e+02
334             	3.99025250e+02
335             	3.99023041e+02
336             	3.99029344e+02
337             	3.99047433e+02
338             	3.99068573e+02
339             	3.99097228e+02
340             	3.99133067e+02
341             	3.99175782e+02
342             	3.99219730e+02
343             	3.99264896e+02
344             	3.99309489e+02
345             	3.99350884e+02
346             	3.99386716e+02
347             	3.99420037e+02
348             	3.99450604e+02
349             	3.99476022e+02
350             	3.99495923e+02
351             	3.99510993e+02
352             	3.99521401e+02
353             	3.99526627e+02
354             	3.99527580e+02
355             	3.99524886e+02
356             	3.99519724e+02
357             	3.99513955e+02
358             	3.99510160e+02
359             	3.99510007e+02
360             	3.99512449e+02
361             	3.99517222e+02
362             	3.99524297e+02
363             	3.99536528e+02
364             	3.99552369e+02
365             	3.99571804e+02
366             	3.99596408e+02
367             	3.99626559e+02
368             	3.99659737e+02
369             	3.99694328e+02
370             	3.99731128e+02
371             	3.99769308e+02
372             	3.99803039e+02
373             	3.99832511e+02
374             	3.99859120e+02
375             	3.99882807e+02
376             	3.99900232e+02
377             	3.99913624e+02
378             	3.99924753e+02
379             	3.99934843e+02
380             	3.99944143e+02
381             	3.99954006e+02
382             	3.99964363e+02
383             	3.99972787e+02
384             	3.99981111e+02
385             	3.99992729e+02
386             	4.00006372e+02
387             	4.00021428e+02
388             	4.00040465e+02
389             	4.00064278e+02
390             	4.00091535e+02
391             	4.00121002e+02
392             	4.00151006e+02
393             	4.00181212e+02
394             	4.00210679e+02
395             	4.00237527e+02
396             	4.00263351e+02
397             	4.00286927e+02
398             	4.00306941e+02
399             	4.00321209e+02
400             	4.00332155e+02
401             	4.00339153e+02
402             	4.00342671e+02
403             	4.00343443e+02
404             	4.00342379e+02
405             	4.00340974e+02
406             	4.00340312e+02
407             	4.00339768e+02
408             	4.00340381e+02
409             	4.00341001e+02
410             	4.00341291e+02
411             	4.00341442e+02
412             	4.00341280e+02
413             	4.00343523e+02
414             	4.00346251e+02
415             	4.00350968e+02
416             	4.00357811e+02
417             	4.00367024e+02
418             	4.00378051e+02
419             	4.00390230e+02
420             	4.00402721e+02
421             	4.00414819e+02
422             	4.00425863e+02
423             	4.00433473e+02
424             	4.00440096e+02
425             	4.00445266e+02
426             	4.00448847e+02
427             	4.00452341e+02
428             	4.00454209e+02
429             	4.00456105e+02
430             	4.00457589e+02
431             	4.00460382e+02
432             	4.00461278e+02
433             	4.00461965e+02
434             	4.00461742e+02
435             	4.00459953e+02
436             	4.00456885e+02
437             	4.00453306e+02
438             	4.00449926e+02
439             	4.00447265e+02
440             	4.00444490e+02
441             	4.00442199e+02
442             	4.00440182e+02
443             	4.00439571e+02
444             	4.00439738e+02
445             	4.00440261e+02
446             	4.00442211e+02
447             	4.00445970e+02
448             	4.00450861e+02
449             	4.00456779e+02
450             	4.00463728e+02
451             	4.00471563e+02
452             	4.00479695e+02
453             	4.00487480e+02
454             	4.00494892e+02
455             	4.00501931e+02
456             	4.00508411e+02
457             	4.00514055e+02
458             	4.00518828e+02
459             	4.00523786e+02
460             	4.00527842e+02
461             	4.00531393e+02
462             	4.00534604e+02
463             	4.00537816e+02
464             	4.00540338e+02
465             	4.00541910e+02
466             	4.00541524e+02
467             	4.00540314e+02
468             	4.00538472e+02
469             	4.00536754e+02
470             	4.00536057e+02
471             	4.00537427e+02
472             	4.00539967e+02
473             	4.00543089e+02
474             	4.00548071e+02
475             	4.00553153e+02
476             	4.00558177e+02
477             	4.00563004e+02
478             	4.00566780e+02
479             	4.00569568e+02
480             	4.00571599e+02
481             	4.00572959e+02
482             	4.00573807e+02
483             	4.00574232e+02
484             	4.00574508e+02
485             	4.00574657e+02
486             	4.00574714e+02
487             	4.00574735e+02
488             	4.00574716e+02
489             	4.00574649e+02
490             	4.00574862e+02
491             	4.00575226e+02
492             	4.00575644e+02
493             	4.00576378e+02
494             	4.00577417e+02
495             	4.00578745e+02
496             	4.00579703e+02
497             	4.00580881e+02
498             	4.00582080e+02
499             	4.00583090e+02
500             	4.00584164e+02
501             	4.00585049e+02
502             	4.00585791e+02
503             	4.00585306e+02
504             	4.00584516e+02
505             	4.00583216e+02
506             	4.00581374e+02
507             	4.00579214e+02
508             	4.00576803e+02
509             	4.00574478e+02
510             	4.00573082e+02
511             	4.00572508e+02
512             	4.00572475e+02
513             	4.00573248e+02
514             	4.00574946e+02
515             	4.00577187e+02
516             	4.00579399e+02
517             	4.00581951e+02
518             	4.00584753e+02
519             	4.00587695e+02
520             	4.00590667e+02
521             	4.00593444e+02
522             	4.00595974e+02
523             	4.00598174e+02
524             	4.00600232e+02
525             	4.00601957e+02
526             	4.00602655e+02
527             	4.00603127e+02
528             	4.00603300e+02
529             	4.00602578e+02
530             	4.00601450e+02
531             	4.00600118e+02
532             	4.00598731e+02
533             	4.00597018e+02
534             	4.00595239e+02
535             	4.00593435e+02
536             	4.00592580e+02
537             	4.00591867e+02
538             	4.00591608e+02
539             	4.00592645e+02
540             	4.00594552e+02
541             	4.00597278e+02
542             	4.00600730e+02
543             	4.00604700e+02
544             	4.00608952e+02
545             	4.00613280e+02
546             	4.00616872e+02
547             	4.00620266e+02
548             	4.00623170e+02
549             	4.00625469e+02
550             	4.00627137e+02
551             	4.00627783e+02
552             	4.00627889e+02
553             	4.00627576e+02
554             	4.00627104e+02
555             	4.00626587e+02
556             	4.00626066e+02
557             	4.00625719e+02
558             	4.00625647e+02
559             	4.00625824e+02
560             	4.00625646e+02
561             	4.00625591e+02
562             	4.00625498e+02
563             	4.00625134e+02
564             	4.00624512e+02
565             	4.00623769e+02
566             	4.00623126e+02
567             	4.00622271e+02
568             	4.00621308e+02
569             	4.00620382e+02
570             	4.00619636e+02
571             	4.00618864e+02
572             	4.00618837e+02
573             	4.00619125e+02
574             	4.00619869e+02
575             	4.00621114e+02
576             	4.00622711e+02
577             	4.00624444e+02
578             	4.00626137e+02
579             	4.00627607e+02
580             	4.00628777e+02
581             	4.00629715e+02
582             	4.00630422e+02
583             	4.00630967e+02
584             	4.00630812e+02
585             	4.00630377e+02
586             	4.00629649e+02
587             	4.00628619e+02
588             	4.00627382e+02
589             	4.00626100e+02
590             	4.00624754e+02
591             	4.00623439e+02
592             	4.00622228e+02
593             	4.00621264e+02
594             	4.00620272e+02
595             	4.00619401e+02
596             	4.00619323e+02
597             	4.00619582e+02
598             	4.00620257e+02
599             	4.00621395e+02
600             	4.00622897e+02
601             	4.00624578e+02
602             	4.00626511e+02
603             	4.00628541e+02
604             	4.00630162e+02
605             	4.00631152e+02
606             	4.00631763e+02
607             	4.00632168e+02
608             	4.00632086e+02
609             	4.00631568e+02
610             	4.00630874e+02
611             	4.00630203e+02
612             	4.00629663e+02
613             	4.00629304e+02
614             	4.00629137e+02
615             	4.00629022e+02
616             	4.00629021e+02
617             	4.00629107e+02
618             	4.00629245e+02
619             	4.00629395e+02
620             	4.00629521e+02
621             	4.00629618e+02
