# Region        : cellZone component_0
# Cells         : 24
# Volume        : 3.92842740e-02
# Time          	volAverage(T)
1               	3.01082525e+02
2               	3.02143141e+02
3               	3.03067798e+02
4               	3.03909121e+02
5               	3.04716181e+02
6               	3.05501346e+02
7               	3.06265832e+02
8               	3.07008961e+02
9               	3.07735063e+02
10              	3.08429497e+02
11              	3.09097566e+02
12              	3.09742744e+02
13              	3.10386029e+02
14              	3.11029242e+02
15              	3.11670990e+02
16              	3.12291778e+02
17              	3.12886676e+02
18              	3.13473105e+02
19              	3.14052273e+02
20              	3.14613188e+02
21              	3.15150071e+02
22              	3.15669922e+02
23              	3.16170259e+02
24              	3.16650179e+02
25              	3.17105284e+02
26              	3.17539308e+02
27              	3.17965046e+02
28              	3.18384336e+02
29              	3.18806980e+02
30              	3.19223414e+02
31              	3.19624865e+02
32              	3.20023067e+02
33              	3.20414800e+02
34              	3.20802068e+02
35              	3.21185232e+02
36              	3.21565574e+02
37              	3.21947580e+02
38              	3.22331689e+02
39              	3.22692533e+02
40              	3.23053417e+02
41              	3.23408180e+02
42              	3.23760635e+02
43              	3.24106754e+02
44              	3.24434874e+02
45              	3.24753613e+02
46              	3.25062247e+02
47              	3.25361815e+02
48              	3.25652682e+02
49              	3.25915557e+02
50              	3.26192852e+02
51              	3.26430679e+02
52              	3.26680757e+02
53              	3.26914365e+02
54              	3.27163953e+02
55              	3.27363693e+02
56              	3.27592223e+02
57              	3.27745623e+02
58              	3.27912362e+02
59              	3.28085735e+02
60              	3.28251300e+02
61              	3.28412337e+02
62              	3.28555381e+02
63              	3.28709059e+02
64              	3.28863205e+02
65              	3.29021530e+02
66              	3.29160599e+02
67              	3.29287363e+02
68              	3.29396033e+02
69              	3.29505999e+02
70              	3.29634136e+02
71              	3.29771911e+02
72              	3.29905655e+02
73              	3.30038084e+02
74              	3.30179234e+02
75              	3.30336777e+02
76              	3.30488418e+02
77              	3.30625817e+02
78              	3.30778696e+02
79              	3.30926748e+02
80              	3.31076352e+02
81              	3.31230158e+02
82              	3.31352935e+02
83              	3.31493086e+02
84              	3.31645325e+02
85              	3.31803331e+02
86              	3.31968763e+02
87              	3.32104059e+02
88              	3.32261350e+02
89              	3.32394849e+02
90              	3.32535020e+02
91              	3.32685348e+02
92              	3.32850517e+02
93              	3.32979333e+02
94              	3.33124412e+02
95              	3.33243538e+02
96              	3.33348527e+02
97              	3.33438853e+02
98              	3.33544258e+02
99              	3.33653727e+02
100             	3.33767093e+02
101             	3.33864726e+02
102             	3.33997412e+02
103             	3.34091743e+02
104             	3.34163190e+02
105             	3.34259691e+02
106             	3.34368601e+02
107             	3.34464829e+02
108             	3.34567196e+02
109             	3.34645320e+02
110             	3.34705394e+02
111             	3.34780604e+02
112             	3.34873524e+02
113             	3.34942625e+02
114             	3.35006187e+02
115             	3.35084801e+02
116             	3.35159968e+02
117             	3.35239790e+02
118             	3.35318174e+02
119             	3.35391544e+02
120             	3.35470708e+02
121             	3.35524917e+02
122             	3.35580557e+02
123             	3.35642786e+02
124             	3.35703559e+02
125             	3.35774411e+02
126             	3.35841319e+02
127             	3.35887513e+02
128             	3.35963293e+02
129             	3.36006838e+02
130             	3.36078579e+02
131             	3.36142439e+02
132             	3.36202599e+02
133             	3.36258253e+02
134             	3.36310413e+02
135             	3.36343543e+02
136             	3.36381270e+02
137             	3.36426078e+02
138             	3.36477737e+02
139             	3.36528363e+02
140             	3.36577459e+02
141             	3.36605465e+02
142             	3.36671278e+02
143             	3.36707791e+02
144             	3.36754133e+02
145             	3.36810883e+02
146             	3.36870472e+02
147             	3.36908012e+02
148             	3.36933132e+02
149             	3.36963883e+02
150             	3.37006869e+02
151             	3.37062100e+02
152             	3.37079917e+02
153             	3.37136404e+02
154             	3.37175527e+02
155             	3.37208935e+02
156             	3.37244206e+02
157             	3.37284359e+02
158             	3.37307785e+02
159             	3.37341628e+02
160             	3.37365559e+02
161             	3.37396421e+02
162             	3.37427247e+02
163             	3.37464191e+02
164             	3.37503495e+02
165             	3.37508606e+02
166             	3.37529362e+02
167             	3.37559495e+02
168             	3.37592287e+02
169             	3.37626631e+02
170             	3.37631793e+02
171             	3.37654862e+02
172             	3.37691555e+02
173             	3.37695810e+02
174             	3.37719992e+02
175             	3.37753877e+02
176             	3.37789870e+02
177             	3.37788417e+02
178             	3.37805300e+02
179             	3.37829186e+02
180             	3.37852427e+02
181             	3.37872792e+02
182             	3.37892694e+02
183             	3.37917099e+02
184             	3.37927852e+02
185             	3.37941973e+02
186             	3.37960341e+02
187             	3.37980660e+02
188             	3.37997365e+02
189             	3.38026643e+02
190             	3.38022838e+02
191             	3.38036426e+02
192             	3.38037434e+02
193             	3.38055369e+02
194             	3.38082650e+02
195             	3.38108057e+02
196             	3.38115441e+02
197             	3.38133156e+02
198             	3.38126947e+02
199             	3.38135719e+02
200             	3.38150380e+02
201             	3.38173222e+02
202             	3.38166082e+02
203             	3.38179411e+02
204             	3.38186317e+02
205             	3.38202929e+02
206             	3.38219100e+02
207             	3.38230803e+02
208             	3.38239224e+02
209             	3.38250871e+02
210             	3.38268070e+02
211             	3.38257778e+02
212             	3.38270978e+02
213             	3.38283665e+02
214             	3.38298803e+02
215             	3.38318193e+02
216             	3.38339690e+02
217             	3.38358427e+02
218             	3.38371385e+02
219             	3.38376406e+02
220             	3.38394069e+02
221             	3.38381013e+02
222             	3.38387484e+02
223             	3.38404611e+02
224             	3.38427280e+02
225             	3.38411523e+02
226             	3.38411843e+02
227             	3.38419130e+02
228             	3.38432044e+02
229             	3.38444679e+02
230             	3.38446166e+02
231             	3.38456960e+02
232             	3.38473366e+02
233             	3.38493964e+02
234             	3.38477219e+02
235             	3.38479284e+02
236             	3.38490584e+02
237             	3.38510254e+02
238             	3.38495117e+02
239             	3.38497587e+02
240             	3.38508262e+02
241             	3.38524566e+02
242             	3.38509415e+02
243             	3.38510729e+02
244             	3.38516278e+02
245             	3.38528496e+02
246             	3.38544978e+02
247             	3.38556858e+02
248             	3.38575091e+02
249             	3.38556378e+02
250             	3.38556642e+02
251             	3.38565572e+02
252             	3.38578449e+02
253             	3.38594451e+02
254             	3.38612441e+02
255             	3.38627587e+02
256             	3.38637523e+02
257             	3.38649755e+02
258             	3.38661804e+02
259             	3.38672549e+02
260             	3.38680912e+02
261             	3.38696027e+02
262             	3.38710004e+02
263             	3.38687442e+02
264             	3.38684975e+02
265             	3.38693156e+02
266             	3.38708352e+02
267             	3.38688215e+02
268             	3.38685663e+02
269             	3.38689814e+02
270             	3.38698281e+02
271             	3.38709483e+02
272             	3.38720934e+02
273             	3.38731726e+02
274             	3.38741645e+02
275             	3.38750442e+02
276             	3.38763048e+02
277             	3.38775549e+02
278             	3.38751395e+02
279             	3.38746930e+02
280             	3.38752152e+02
281             	3.38762994e+02
282             	3.38777347e+02
283             	3.38753705e+02
284             	3.38749636e+02
285             	3.38752636e+02
286             	3.38756805e+02
287             	3.38764403e+02
288             	3.38773738e+02
289             	3.38783613e+02
290             	3.38793824e+02
291             	3.38803984e+02
292             	3.38814468e+02
293             	3.38789400e+02
294             	3.38784139e+02
295             	3.38788727e+02
296             	3.38798660e+02
297             	3.38810757e+02
298             	3.38822765e+02
299             	3.38833809e+02
300             	3.38844352e+02
301             	3.38854547e+02
302             	3.38863525e+02
303             	3.38872055e+02
304             	3.38880377e+02
305             	3.38884139e+02
306             	3.38890345e+02
307             	3.38899663e+02
308             	3.38908249e+02
309             	3.38880328e+02
310             	3.38872205e+02
311             	3.38873809e+02
312             	3.38880754e+02
313             	3.38887184e+02
314             	3.38893674e+02
315             	3.38903502e+02
316             	3.38912342e+02
317             	3.38884507e+02
318             	3.38876284e+02
319             	3.38877115e+02
320             	3.38881249e+02
321             	3.38888268e+02
322             	3.38896916e+02
323             	3.38904347e+02
324             	3.38913694e+02
325             	3.38886388e+02
326             	3.38878419e+02
327             	3.38879855e+02
328             	3.38885916e+02
329             	3.38895558e+02
330             	3.38905585e+02
331             	3.38914371e+02
332             	3.38922618e+02
333             	3.38930555e+02
334             	3.38938087e+02
335             	3.38944105e+02
336             	3.38949744e+02
337             	3.38957318e+02
338             	3.38964575e+02
339             	3.38971562e+02
340             	3.38978333e+02
341             	3.38984966e+02
342             	3.38991440e+02
343             	3.38997769e+02
344             	3.39003974e+02
345             	3.39010047e+02
346             	3.39015530e+02
347             	3.39019112e+02
348             	3.39024136e+02
349             	3.39029759e+02
350             	3.39035092e+02
351             	3.39040172e+02
352             	3.39045080e+02
353             	3.39013726e+02
354             	3.39002567e+02
355             	3.39000444e+02
356             	3.39001950e+02
357             	3.39004624e+02
358             	3.39008189e+02
359             	3.39014041e+02
360             	3.39020676e+02
361             	3.39026581e+02
362             	3.39032100e+02
363             	3.39037400e+02
364             	3.39006442e+02
365             	3.38995245e+02
366             	3.38993297e+02
367             	3.38995306e+02
368             	3.38999648e+02
369             	3.39005601e+02
370             	3.39011454e+02
371             	3.39017778e+02
372             	3.39023575e+02
373             	3.38992980e+02
374             	3.38982280e+02
375             	3.38980725e+02
376             	3.38983243e+02
377             	3.38988173e+02
378             	3.38994679e+02
379             	3.39001122e+02
380             	3.39007455e+02
381             	3.39013706e+02
382             	3.39019648e+02
383             	3.39025345e+02
384             	3.39030849e+02
385             	3.39036189e+02
386             	3.39041375e+02
387             	3.39046424e+02
388             	3.39051347e+02
389             	3.39056163e+02
390             	3.39060892e+02
391             	3.39065517e+02
392             	3.39069645e+02
393             	3.39074112e+02
394             	3.39078463e+02
395             	3.39082676e+02
396             	3.39086760e+02
397             	3.39090713e+02
398             	3.39058406e+02
399             	3.39045871e+02
400             	3.39042530e+02
401             	3.39042961e+02
402             	3.39046344e+02
403             	3.39051359e+02
404             	3.39055910e+02
405             	3.39059684e+02
406             	3.39064751e+02
407             	3.39069534e+02
408             	3.39037933e+02
409             	3.39026111e+02
410             	3.39023721e+02
411             	3.39025629e+02
412             	3.39029999e+02
413             	3.39036135e+02
414             	3.39042325e+02
415             	3.39047792e+02
416             	3.39052903e+02
417             	3.39057814e+02
418             	3.39061861e+02
419             	3.39066525e+02
420             	3.39071037e+02
421             	3.39075386e+02
422             	3.39079599e+02
423             	3.39083700e+02
424             	3.39087729e+02
425             	3.39091679e+02
426             	3.39095538e+02
427             	3.39099299e+02
428             	3.39102974e+02
429             	3.39106580e+02
430             	3.39110118e+02
431             	3.39113576e+02
432             	3.39116940e+02
433             	3.39120208e+02
434             	3.39123385e+02
435             	3.39126476e+02
436             	3.39129481e+02
437             	3.39132423e+02
438             	3.39135310e+02
439             	3.39138122e+02
440             	3.39140867e+02
441             	3.39143541e+02
442             	3.39146137e+02
443             	3.39148673e+02
444             	3.39151138e+02
445             	3.39153533e+02
446             	3.39155870e+02
447             	3.39158158e+02
448             	3.39160389e+02
449             	3.39162554e+02
450             	3.39164656e+02
451             	3.39166700e+02
452             	3.39168716e+02
453             	3.39170704e+02
454             	3.39172640e+02
455             	3.39174526e+02
456             	3.39176192e+02
457             	3.39178009e+02
458             	3.39179754e+02
459             	3.39181438e+02
460             	3.39183084e+02
461             	3.39184692e+02
462             	3.39186260e+02
463             	3.39187783e+02
464             	3.39189255e+02
465             	3.39190703e+02
466             	3.39192129e+02
467             	3.39193528e+02
468             	3.39194873e+02
469             	3.39196193e+02
470             	3.39197484e+02
471             	3.39198754e+02
472             	3.39199990e+02
473             	3.39201190e+02
474             	3.39202355e+02
475             	3.39203481e+02
476             	3.39204587e+02
477             	3.39205661e+02
478             	3.39206701e+02
479             	3.39207716e+02
480             	3.39208737e+02
481             	3.39209732e+02
482             	3.39210703e+02
483             	3.39211648e+02
484             	3.39212562e+02
485             	3.39213441e+02
486             	3.39214310e+02
487             	3.39215171e+02
488             	3.39216006e+02
489             	3.39216820e+02
490             	3.39217604e+02
491             	3.39218371e+02
492             	3.39219111e+02
493             	3.39219831e+02
494             	3.39220527e+02
495             	3.39221216e+02
496             	3.39221888e+02
497             	3.39222547e+02
498             	3.39223187e+02
499             	3.39223811e+02
500             	3.39224419e+02
501             	3.39225018e+02
502             	3.39225597e+02
503             	3.39226165e+02
504             	3.39226672e+02
505             	3.39227176e+02
506             	3.39227658e+02
507             	3.39228176e+02
508             	3.39228690e+02
509             	3.39229193e+02
510             	3.39229700e+02
511             	3.39230178e+02
512             	3.39230604e+02
513             	3.39231041e+02
514             	3.39231461e+02
515             	3.39231873e+02
516             	3.39232295e+02
517             	3.39232702e+02
518             	3.39233053e+02
519             	3.39233419e+02
520             	3.39233765e+02
521             	3.39234121e+02
522             	3.39234460e+02
523             	3.39234831e+02
524             	3.39235168e+02
525             	3.39235511e+02
526             	3.39235814e+02
527             	3.39236107e+02
528             	3.39236393e+02
529             	3.39236689e+02
530             	3.39236986e+02
531             	3.39237257e+02
532             	3.39237559e+02
533             	3.39237837e+02
534             	3.39238108e+02
535             	3.39238345e+02
536             	3.39238593e+02
537             	3.39238825e+02
538             	3.39239062e+02
539             	3.39239296e+02
540             	3.39239524e+02
541             	3.39239752e+02
542             	3.39239969e+02
543             	3.39240185e+02
544             	3.39240383e+02
545             	3.39240579e+02
546             	3.39240780e+02
547             	3.39240979e+02
548             	3.39241172e+02
549             	3.39241346e+02
550             	3.39241521e+02
551             	3.39241688e+02
552             	3.39241866e+02
553             	3.39242050e+02
554             	3.39242229e+02
555             	3.39242394e+02
556             	3.39242565e+02
557             	3.39242729e+02
558             	3.39242891e+02
559             	3.39243026e+02
560             	3.39243165e+02
561             	3.39243304e+02
562             	3.39243447e+02
563             	3.39243575e+02
564             	3.39243706e+02
565             	3.39243840e+02
566             	3.39243966e+02
567             	3.39244097e+02
568             	3.39244225e+02
569             	3.39244356e+02
570             	3.39244478e+02
571             	3.39244605e+02
572             	3.39244719e+02
573             	3.39244836e+02
574             	3.39244945e+02
575             	3.39245055e+02
576             	3.39245156e+02
577             	3.39245271e+02
578             	3.39245371e+02
579             	3.39245470e+02
580             	3.39245562e+02
581             	3.39245649e+02
582             	3.39245740e+02
583             	3.39245829e+02
584             	3.39245926e+02
585             	3.39246022e+02
586             	3.39246111e+02
587             	3.39246208e+02
588             	3.39246299e+02
589             	3.39246392e+02
590             	3.39246484e+02
591             	3.39246567e+02
592             	3.39246647e+02
593             	3.39246727e+02
594             	3.39246803e+02
595             	3.39246883e+02
596             	3.39246961e+02
597             	3.39247042e+02
598             	3.39247121e+02
599             	3.39247207e+02
600             	3.39247283e+02
601             	3.39247357e+02
602             	3.39247423e+02
603             	3.39247486e+02
604             	3.39247549e+02
605             	3.39247609e+02
606             	3.39247673e+02
607             	3.39247738e+02
608             	3.39247797e+02
609             	3.39247858e+02
610             	3.39247914e+02
611             	3.39247972e+02
612             	3.39248027e+02
613             	3.39248080e+02
614             	3.39248136e+02
615             	3.39248187e+02
616             	3.39248238e+02
617             	3.39248284e+02
618             	3.39248324e+02
619             	3.39248362e+02
620             	3.39248395e+02
621             	3.39248437e+02
