# Region        : cellZone component_1
# Cells         : 152
# Volume        : 3.03517375e-01
# Time          	volAverage(T)
1               	3.00272595e+02
2               	3.00542436e+02
3               	3.00789715e+02
4               	3.01023878e+02
5               	3.01252731e+02
6               	3.01478606e+02
7               	3.01701860e+02
8               	3.01923662e+02
9               	3.02145812e+02
10              	3.02368355e+02
11              	3.02587661e+02
12              	3.02804866e+02
13              	3.03020128e+02
14              	3.03226938e+02
15              	3.03428182e+02
16              	3.03631275e+02
17              	3.03833313e+02
18              	3.04029532e+02
19              	3.04220375e+02
20              	3.04405525e+02
21              	3.04585971e+02
22              	3.04764065e+02
23              	3.04943660e+02
24              	3.05115698e+02
25              	3.05277230e+02
26              	3.05429790e+02
27              	3.05576123e+02
28              	3.05718050e+02
29              	3.05853864e+02
30              	3.05993151e+02
31              	3.06129525e+02
32              	3.06264265e+02
33              	3.06399184e+02
34              	3.06531600e+02
35              	3.06664190e+02
36              	3.06794556e+02
37              	3.06919575e+02
38              	3.07047258e+02
39              	3.07177426e+02
40              	3.07308539e+02
41              	3.07438828e+02
42              	3.07568498e+02
43              	3.07686326e+02
44              	3.07793486e+02
45              	3.07896667e+02
46              	3.08008785e+02
47              	3.08126492e+02
48              	3.08243721e+02
49              	3.08359367e+02
50              	3.08473629e+02
51              	3.08585393e+02
52              	3.08694776e+02
53              	3.08801916e+02
54              	3.08906503e+02
55              	3.09010243e+02
56              	3.09114120e+02
57              	3.09220565e+02
58              	3.09327308e+02
59              	3.09432135e+02
60              	3.09532621e+02
61              	3.09631223e+02
62              	3.09724406e+02
63              	3.09814818e+02
64              	3.09903898e+02
65              	3.09991610e+02
66              	3.10074532e+02
67              	3.10151321e+02
68              	3.10227336e+02
69              	3.10303234e+02
70              	3.10381320e+02
71              	3.10463560e+02
72              	3.10551490e+02
73              	3.10641413e+02
74              	3.10727399e+02
75              	3.10811840e+02
76              	3.10894303e+02
77              	3.10974971e+02
78              	3.11050844e+02
79              	3.11121080e+02
80              	3.11186998e+02
81              	3.11250210e+02
82              	3.11313936e+02
83              	3.11377191e+02
84              	3.11441617e+02
85              	3.11512312e+02
86              	3.11585036e+02
87              	3.11656967e+02
88              	3.11728155e+02
89              	3.11792714e+02
90              	3.11853767e+02
91              	3.11910400e+02
92              	3.11962673e+02
93              	3.12012169e+02
94              	3.12059042e+02
95              	3.12101558e+02
96              	3.12141573e+02
97              	3.12183820e+02
98              	3.12229240e+02
99              	3.12278589e+02
100             	3.12334902e+02
101             	3.12391969e+02
102             	3.12447929e+02
103             	3.12499258e+02
104             	3.12547305e+02
105             	3.12589538e+02
106             	3.12625429e+02
107             	3.12656939e+02
108             	3.12687708e+02
109             	3.12717310e+02
110             	3.12749356e+02
111             	3.12787282e+02
112             	3.12828257e+02
113             	3.12873189e+02
114             	3.12920000e+02
115             	3.12968112e+02
116             	3.13013515e+02
117             	3.13056071e+02
118             	3.13094445e+02
119             	3.13127637e+02
120             	3.13157221e+02
121             	3.13183799e+02
122             	3.13209361e+02
123             	3.13236622e+02
124             	3.13267128e+02
125             	3.13299612e+02
126             	3.13335551e+02
127             	3.13372940e+02
128             	3.13411729e+02
129             	3.13448436e+02
130             	3.13484081e+02
131             	3.13516526e+02
132             	3.13544483e+02
133             	3.13568651e+02
134             	3.13590693e+02
135             	3.13611058e+02
136             	3.13629724e+02
137             	3.13648432e+02
138             	3.13668817e+02
139             	3.13691191e+02
140             	3.13716327e+02
141             	3.13743880e+02
142             	3.13773965e+02
143             	3.13803699e+02
144             	3.13832655e+02
145             	3.13860356e+02
146             	3.13885107e+02
147             	3.13907840e+02
148             	3.13926519e+02
149             	3.13943351e+02
150             	3.13957624e+02
151             	3.13971856e+02
152             	3.13987758e+02
153             	3.14006268e+02
154             	3.14027656e+02
155             	3.14051635e+02
156             	3.14077136e+02
157             	3.14102187e+02
158             	3.14125531e+02
159             	3.14145607e+02
160             	3.14162704e+02
161             	3.14176172e+02
162             	3.14185838e+02
163             	3.14192927e+02
164             	3.14198725e+02
165             	3.14205034e+02
166             	3.14213441e+02
167             	3.14224892e+02
168             	3.14239847e+02
169             	3.14256102e+02
170             	3.14272948e+02
171             	3.14289643e+02
172             	3.14304890e+02
173             	3.14318278e+02
174             	3.14329214e+02
175             	3.14338348e+02
176             	3.14346208e+02
177             	3.14352799e+02
178             	3.14358173e+02
179             	3.14362878e+02
180             	3.14367527e+02
181             	3.14372946e+02
182             	3.14379205e+02
183             	3.14386465e+02
184             	3.14394579e+02
185             	3.14403135e+02
186             	3.14411847e+02
187             	3.14420445e+02
188             	3.14428459e+02
189             	3.14436371e+02
190             	3.14444304e+02
191             	3.14452753e+02
192             	3.14460243e+02
193             	3.14467675e+02
194             	3.14474165e+02
195             	3.14479168e+02
196             	3.14482634e+02
197             	3.14484539e+02
198             	3.14485183e+02
199             	3.14484928e+02
200             	3.14484467e+02
201             	3.14484905e+02
202             	3.14487286e+02
203             	3.14491695e+02
204             	3.14498490e+02
205             	3.14507301e+02
206             	3.14517319e+02
207             	3.14525666e+02
208             	3.14532970e+02
209             	3.14538933e+02
210             	3.14542237e+02
211             	3.14543077e+02
212             	3.14542581e+02
213             	3.14541763e+02
214             	3.14541261e+02
215             	3.14541754e+02
216             	3.14543442e+02
217             	3.14546379e+02
218             	3.14550644e+02
219             	3.14555642e+02
220             	3.14560849e+02
221             	3.14566215e+02
222             	3.14571091e+02
223             	3.14575357e+02
224             	3.14578992e+02
225             	3.14582192e+02
226             	3.14584954e+02
227             	3.14587166e+02
228             	3.14588754e+02
229             	3.14589844e+02
230             	3.14590768e+02
231             	3.14591710e+02
232             	3.14592775e+02
233             	3.14593968e+02
234             	3.14595231e+02
235             	3.14596183e+02
236             	3.14597041e+02
237             	3.14597812e+02
238             	3.14598583e+02
239             	3.14599464e+02
240             	3.14600312e+02
241             	3.14601294e+02
242             	3.14602486e+02
243             	3.14603794e+02
244             	3.14605287e+02
245             	3.14606953e+02
246             	3.14608546e+02
247             	3.14610062e+02
248             	3.14611478e+02
249             	3.14612092e+02
250             	3.14612571e+02
251             	3.14612904e+02
252             	3.14612729e+02
253             	3.14612240e+02
254             	3.14611558e+02
255             	3.14610851e+02
256             	3.14610145e+02
257             	3.14609467e+02
258             	3.14608903e+02
259             	3.14608656e+02
260             	3.14608841e+02
261             	3.14609223e+02
262             	3.14609760e+02
263             	3.14610599e+02
264             	3.14611521e+02
265             	3.14612499e+02
266             	3.14613258e+02
267             	3.14613816e+02
268             	3.14614170e+02
269             	3.14614094e+02
270             	3.14613788e+02
271             	3.14613282e+02
272             	3.14612679e+02
273             	3.14612131e+02
274             	3.14611548e+02
275             	3.14611005e+02
276             	3.14610538e+02
277             	3.14610144e+02
278             	3.14609748e+02
279             	3.14609375e+02
280             	3.14609020e+02
281             	3.14608712e+02
282             	3.14608383e+02
283             	3.14608030e+02
284             	3.14607682e+02
285             	3.14607340e+02
286             	3.14606947e+02
287             	3.14606539e+02
288             	3.14606118e+02
289             	3.14605665e+02
290             	3.14605199e+02
291             	3.14604731e+02
292             	3.14604336e+02
293             	3.14603930e+02
294             	3.14603558e+02
295             	3.14603157e+02
296             	3.14602651e+02
297             	3.14602094e+02
298             	3.14601429e+02
299             	3.14600758e+02
300             	3.14600053e+02
301             	3.14599333e+02
302             	3.14598641e+02
303             	3.14597998e+02
304             	3.14597425e+02
305             	3.14596853e+02
306             	3.14596391e+02
307             	3.14595954e+02
308             	3.14595532e+02
309             	3.14595179e+02
310             	3.14594822e+02
311             	3.14594461e+02
312             	3.14594126e+02
313             	3.14593791e+02
314             	3.14593459e+02
315             	3.14593067e+02
316             	3.14592653e+02
317             	3.14592233e+02
318             	3.14591759e+02
319             	3.14591238e+02
320             	3.14590713e+02
321             	3.14590167e+02
322             	3.14589612e+02
323             	3.14589058e+02
324             	3.14588522e+02
325             	3.14588001e+02
326             	3.14587489e+02
327             	3.14586999e+02
328             	3.14586508e+02
329             	3.14586053e+02
330             	3.14585604e+02
331             	3.14585162e+02
332             	3.14584728e+02
333             	3.14584341e+02
334             	3.14583989e+02
335             	3.14583645e+02
336             	3.14583352e+02
337             	3.14583070e+02
338             	3.14582764e+02
339             	3.14582409e+02
340             	3.14582094e+02
341             	3.14581783e+02
342             	3.14581425e+02
343             	3.14581038e+02
344             	3.14580652e+02
345             	3.14580266e+02
346             	3.14579856e+02
347             	3.14579455e+02
348             	3.14579039e+02
349             	3.14578635e+02
350             	3.14578234e+02
351             	3.14577837e+02
352             	3.14577437e+02
353             	3.14577036e+02
354             	3.14576652e+02
355             	3.14576278e+02
356             	3.14575930e+02
357             	3.14575606e+02
358             	3.14575282e+02
359             	3.14574987e+02
360             	3.14574716e+02
361             	3.14574476e+02
362             	3.14574231e+02
363             	3.14573989e+02
364             	3.14573745e+02
365             	3.14573477e+02
366             	3.14573171e+02
367             	3.14572881e+02
368             	3.14572571e+02
369             	3.14572271e+02
370             	3.14571982e+02
371             	3.14571706e+02
372             	3.14571427e+02
373             	3.14571133e+02
374             	3.14570843e+02
375             	3.14570556e+02
376             	3.14570275e+02
377             	3.14569996e+02
378             	3.14569749e+02
379             	3.14569526e+02
380             	3.14569345e+02
381             	3.14569187e+02
382             	3.14569035e+02
383             	3.14568885e+02
384             	3.14568733e+02
385             	3.14568570e+02
386             	3.14568407e+02
387             	3.14568240e+02
388             	3.14568064e+02
389             	3.14567885e+02
390             	3.14567701e+02
391             	3.14567517e+02
392             	3.14567344e+02
393             	3.14567173e+02
394             	3.14566998e+02
395             	3.14566825e+02
396             	3.14566662e+02
397             	3.14566506e+02
398             	3.14566343e+02
399             	3.14566180e+02
400             	3.14566018e+02
401             	3.14565863e+02
402             	3.14565701e+02
403             	3.14565535e+02
404             	3.14565371e+02
405             	3.14565231e+02
406             	3.14565098e+02
407             	3.14564973e+02
408             	3.14564858e+02
409             	3.14564746e+02
410             	3.14564635e+02
411             	3.14564515e+02
412             	3.14564366e+02
413             	3.14564219e+02
414             	3.14564072e+02
415             	3.14563928e+02
416             	3.14563790e+02
417             	3.14563665e+02
418             	3.14563565e+02
419             	3.14563468e+02
420             	3.14563380e+02
421             	3.14563299e+02
422             	3.14563231e+02
423             	3.14563177e+02
424             	3.14563137e+02
425             	3.14563108e+02
426             	3.14563089e+02
427             	3.14563075e+02
428             	3.14563048e+02
429             	3.14563029e+02
430             	3.14563012e+02
431             	3.14563003e+02
432             	3.14563005e+02
433             	3.14563017e+02
434             	3.14563041e+02
435             	3.14563072e+02
436             	3.14563113e+02
437             	3.14563163e+02
438             	3.14563217e+02
439             	3.14563279e+02
440             	3.14563345e+02
441             	3.14563411e+02
442             	3.14563478e+02
443             	3.14563542e+02
444             	3.14563604e+02
445             	3.14563665e+02
446             	3.14563725e+02
447             	3.14563786e+02
448             	3.14563850e+02
449             	3.14563915e+02
450             	3.14563981e+02
451             	3.14564047e+02
452             	3.14564102e+02
453             	3.14564162e+02
454             	3.14564225e+02
455             	3.14564300e+02
456             	3.14564372e+02
457             	3.14564450e+02
458             	3.14564537e+02
459             	3.14564630e+02
460             	3.14564724e+02
461             	3.14564820e+02
462             	3.14564914e+02
463             	3.14565004e+02
464             	3.14565089e+02
465             	3.14565168e+02
466             	3.14565240e+02
467             	3.14565307e+02
468             	3.14565368e+02
469             	3.14565427e+02
470             	3.14565484e+02
471             	3.14565540e+02
472             	3.14565595e+02
473             	3.14565650e+02
474             	3.14565706e+02
475             	3.14565764e+02
476             	3.14565823e+02
477             	3.14565881e+02
478             	3.14565940e+02
479             	3.14565999e+02
480             	3.14566062e+02
481             	3.14566126e+02
482             	3.14566191e+02
483             	3.14566257e+02
484             	3.14566323e+02
485             	3.14566389e+02
486             	3.14566455e+02
487             	3.14566514e+02
488             	3.14566573e+02
489             	3.14566631e+02
490             	3.14566687e+02
491             	3.14566743e+02
492             	3.14566798e+02
493             	3.14566853e+02
494             	3.14566909e+02
495             	3.14566965e+02
496             	3.14567023e+02
497             	3.14567082e+02
498             	3.14567141e+02
499             	3.14567201e+02
500             	3.14567261e+02
501             	3.14567322e+02
502             	3.14567383e+02
503             	3.14567446e+02
504             	3.14567511e+02
505             	3.14567578e+02
506             	3.14567647e+02
507             	3.14567719e+02
508             	3.14567794e+02
509             	3.14567874e+02
510             	3.14567958e+02
511             	3.14568047e+02
512             	3.14568137e+02
513             	3.14568227e+02
514             	3.14568317e+02
515             	3.14568408e+02
516             	3.14568497e+02
517             	3.14568587e+02
518             	3.14568675e+02
519             	3.14568762e+02
520             	3.14568848e+02
521             	3.14568935e+02
522             	3.14569023e+02
523             	3.14569114e+02
524             	3.14569204e+02
525             	3.14569294e+02
526             	3.14569384e+02
527             	3.14569473e+02
528             	3.14569561e+02
529             	3.14569647e+02
530             	3.14569730e+02
531             	3.14569811e+02
532             	3.14569890e+02
533             	3.14569970e+02
534             	3.14570051e+02
535             	3.14570134e+02
536             	3.14570218e+02
537             	3.14570305e+02
538             	3.14570393e+02
539             	3.14570485e+02
540             	3.14570580e+02
541             	3.14570676e+02
542             	3.14570773e+02
543             	3.14570870e+02
544             	3.14570966e+02
545             	3.14571063e+02
546             	3.14571159e+02
547             	3.14571256e+02
548             	3.14571351e+02
549             	3.14571447e+02
550             	3.14571542e+02
551             	3.14571639e+02
552             	3.14571736e+02
553             	3.14571833e+02
554             	3.14571930e+02
555             	3.14572027e+02
556             	3.14572123e+02
557             	3.14572219e+02
558             	3.14572313e+02
559             	3.14572407e+02
560             	3.14572499e+02
561             	3.14572591e+02
562             	3.14572682e+02
563             	3.14572773e+02
564             	3.14572865e+02
565             	3.14572957e+02
566             	3.14573050e+02
567             	3.14573145e+02
568             	3.14573240e+02
569             	3.14573339e+02
570             	3.14573438e+02
571             	3.14573540e+02
572             	3.14573642e+02
573             	3.14573744e+02
574             	3.14573846e+02
575             	3.14573948e+02
576             	3.14574050e+02
577             	3.14574151e+02
578             	3.14574251e+02
579             	3.14574350e+02
580             	3.14574448e+02
581             	3.14574546e+02
582             	3.14574643e+02
583             	3.14574741e+02
584             	3.14574837e+02
585             	3.14574935e+02
586             	3.14575031e+02
587             	3.14575129e+02
588             	3.14575228e+02
589             	3.14575327e+02
590             	3.14575426e+02
591             	3.14575526e+02
592             	3.14575625e+02
593             	3.14575726e+02
594             	3.14575826e+02
595             	3.14575927e+02
596             	3.14576027e+02
597             	3.14576127e+02
598             	3.14576226e+02
599             	3.14576325e+02
600             	3.14576424e+02
601             	3.14576522e+02
602             	3.14576619e+02
603             	3.14576716e+02
604             	3.14576812e+02
605             	3.14576908e+02
606             	3.14577004e+02
607             	3.14577100e+02
608             	3.14577195e+02
609             	3.14577290e+02
610             	3.14577384e+02
611             	3.14577479e+02
612             	3.14577574e+02
613             	3.14577669e+02
614             	3.14577764e+02
615             	3.14577858e+02
616             	3.14577952e+02
617             	3.14578046e+02
618             	3.14578139e+02
619             	3.14578233e+02
620             	3.14578327e+02
621             	3.14578421e+02
