# Region        : cellZone component_3
# Cells         : 225
# Volume        : 3.97068305e-01
# Time          	volAverage(T)
1               	3.00098377e+02
2               	3.00195776e+02
3               	3.00289020e+02
4               	3.00380009e+02
5               	3.00470332e+02
6               	3.00559782e+02
7               	3.00648670e+02
8               	3.00737274e+02
9               	3.00825690e+02
10              	3.00913581e+02
11              	3.01000598e+02
12              	3.01086758e+02
13              	3.01172856e+02
14              	3.01258682e+02
15              	3.01343763e+02
16              	3.01428128e+02
17              	3.01510870e+02
18              	3.01591640e+02
19              	3.01672398e+02
20              	3.01753208e+02
21              	3.01833307e+02
22              	3.01912858e+02
23              	3.01991828e+02
24              	3.02070142e+02
25              	3.02150836e+02
26              	3.02229142e+02
27              	3.02308534e+02
28              	3.02385247e+02
29              	3.02461051e+02
30              	3.02539510e+02
31              	3.02615435e+02
32              	3.02688938e+02
33              	3.02759096e+02
34              	3.02827484e+02
35              	3.02897870e+02
36              	3.02967709e+02
37              	3.03037037e+02
38              	3.03105771e+02
39              	3.03173643e+02
40              	3.03241048e+02
41              	3.03308598e+02
42              	3.03375866e+02
43              	3.03442684e+02
44              	3.03509594e+02
45              	3.03576958e+02
46              	3.03644129e+02
47              	3.03707881e+02
48              	3.03770536e+02
49              	3.03832953e+02
50              	3.03895615e+02
51              	3.03958897e+02
52              	3.04021939e+02
53              	3.04084936e+02
54              	3.04147616e+02
55              	3.04210964e+02
56              	3.04272513e+02
57              	3.04333667e+02
58              	3.04393867e+02
59              	3.04455114e+02
60              	3.04514443e+02
61              	3.04572817e+02
62              	3.04627979e+02
63              	3.04682412e+02
64              	3.04736929e+02
65              	3.04790438e+02
66              	3.04843603e+02
67              	3.04897506e+02
68              	3.04951757e+02
69              	3.05006062e+02
70              	3.05061110e+02
71              	3.05116611e+02
72              	3.05171665e+02
73              	3.05227050e+02
74              	3.05283246e+02
75              	3.05338336e+02
76              	3.05394697e+02
77              	3.05450837e+02
78              	3.05504965e+02
79              	3.05556120e+02
80              	3.05608192e+02
81              	3.05660683e+02
82              	3.05713403e+02
83              	3.05765740e+02
84              	3.05816520e+02
85              	3.05867494e+02
86              	3.05918266e+02
87              	3.05968376e+02
88              	3.06019181e+02
89              	3.06070305e+02
90              	3.06121694e+02
91              	3.06173309e+02
92              	3.06225277e+02
93              	3.06276127e+02
94              	3.06325007e+02
95              	3.06373285e+02
96              	3.06420597e+02
97              	3.06467499e+02
98              	3.06513238e+02
99              	3.06557887e+02
100             	3.06601130e+02
101             	3.06644031e+02
102             	3.06687713e+02
103             	3.06730326e+02
104             	3.06771846e+02
105             	3.06814484e+02
106             	3.06857998e+02
107             	3.06901856e+02
108             	3.06944531e+02
109             	3.06986193e+02
110             	3.07027190e+02
111             	3.07067107e+02
112             	3.07106281e+02
113             	3.07144529e+02
114             	3.07182383e+02
115             	3.07220084e+02
116             	3.07257371e+02
117             	3.07294531e+02
118             	3.07333400e+02
119             	3.07374079e+02
120             	3.07413434e+02
121             	3.07450894e+02
122             	3.07489677e+02
123             	3.07526324e+02
124             	3.07562751e+02
125             	3.07597784e+02
126             	3.07632157e+02
127             	3.07664300e+02
128             	3.07698717e+02
129             	3.07732099e+02
130             	3.07766365e+02
131             	3.07800447e+02
132             	3.07836202e+02
133             	3.07871182e+02
134             	3.07908126e+02
135             	3.07943961e+02
136             	3.07979352e+02
137             	3.08013024e+02
138             	3.08046366e+02
139             	3.08078788e+02
140             	3.08110821e+02
141             	3.08142313e+02
142             	3.08173085e+02
143             	3.08202629e+02
144             	3.08232835e+02
145             	3.08263194e+02
146             	3.08294699e+02
147             	3.08327067e+02
148             	3.08359867e+02
149             	3.08393032e+02
150             	3.08426120e+02
151             	3.08459193e+02
152             	3.08491943e+02
153             	3.08524375e+02
154             	3.08555941e+02
155             	3.08586386e+02
156             	3.08616381e+02
157             	3.08646132e+02
158             	3.08675861e+02
159             	3.08705439e+02
160             	3.08735257e+02
161             	3.08764994e+02
162             	3.08794551e+02
163             	3.08823993e+02
164             	3.08853094e+02
165             	3.08882191e+02
166             	3.08911176e+02
167             	3.08939925e+02
168             	3.08968813e+02
169             	3.08998037e+02
170             	3.09027038e+02
171             	3.09056066e+02
172             	3.09084526e+02
173             	3.09112538e+02
174             	3.09140456e+02
175             	3.09167529e+02
176             	3.09194494e+02
177             	3.09220655e+02
178             	3.09247036e+02
179             	3.09273059e+02
180             	3.09298771e+02
181             	3.09324247e+02
182             	3.09349305e+02
183             	3.09374220e+02
184             	3.09398768e+02
185             	3.09423135e+02
186             	3.09447453e+02
187             	3.09471423e+02
188             	3.09495873e+02
189             	3.09520175e+02
190             	3.09544593e+02
191             	3.09569018e+02
192             	3.09593122e+02
193             	3.09616785e+02
194             	3.09640456e+02
195             	3.09663445e+02
196             	3.09686105e+02
197             	3.09708188e+02
198             	3.09730566e+02
199             	3.09752558e+02
200             	3.09774593e+02
201             	3.09796258e+02
202             	3.09817769e+02
203             	3.09838944e+02
204             	3.09860137e+02
205             	3.09881153e+02
206             	3.09902260e+02
207             	3.09923500e+02
208             	3.09944790e+02
209             	3.09966006e+02
210             	3.09986488e+02
211             	3.10006862e+02
212             	3.10027062e+02
213             	3.10047154e+02
214             	3.10067061e+02
215             	3.10086825e+02
216             	3.10106503e+02
217             	3.10126134e+02
218             	3.10145586e+02
219             	3.10165202e+02
220             	3.10184382e+02
221             	3.10203735e+02
222             	3.10222713e+02
223             	3.10241851e+02
224             	3.10260689e+02
225             	3.10279713e+02
226             	3.10298357e+02
227             	3.10317246e+02
228             	3.10335726e+02
229             	3.10354343e+02
230             	3.10372562e+02
231             	3.10390799e+02
232             	3.10408634e+02
233             	3.10426342e+02
234             	3.10443868e+02
235             	3.10461290e+02
236             	3.10478565e+02
237             	3.10495665e+02
238             	3.10512615e+02
239             	3.10529545e+02
240             	3.10546355e+02
241             	3.10563284e+02
242             	3.10579731e+02
243             	3.10596312e+02
244             	3.10612414e+02
245             	3.10628404e+02
246             	3.10644281e+02
247             	3.10659916e+02
248             	3.10675500e+02
249             	3.10691022e+02
250             	3.10706409e+02
251             	3.10721719e+02
252             	3.10736937e+02
253             	3.10752087e+02
254             	3.10767198e+02
255             	3.10782249e+02
256             	3.10797216e+02
257             	3.10812118e+02
258             	3.10826961e+02
259             	3.10841697e+02
260             	3.10856334e+02
261             	3.10870853e+02
262             	3.10885194e+02
263             	3.10899495e+02
264             	3.10913684e+02
265             	3.10927750e+02
266             	3.10941712e+02
267             	3.10955526e+02
268             	3.10969199e+02
269             	3.10982806e+02
270             	3.10996314e+02
271             	3.11009689e+02
272             	3.11022920e+02
273             	3.11036018e+02
274             	3.11049045e+02
275             	3.11061968e+02
276             	3.11074820e+02
277             	3.11087548e+02
278             	3.11100235e+02
279             	3.11112830e+02
280             	3.11125284e+02
281             	3.11137620e+02
282             	3.11149894e+02
283             	3.11162088e+02
284             	3.11174189e+02
285             	3.11186199e+02
286             	3.11198126e+02
287             	3.11209984e+02
288             	3.11221762e+02
289             	3.11233458e+02
290             	3.11245090e+02
291             	3.11256673e+02
292             	3.11268172e+02
293             	3.11279587e+02
294             	3.11290940e+02
295             	3.11302179e+02
296             	3.11313333e+02
297             	3.11324404e+02
298             	3.11335376e+02
299             	3.11346270e+02
300             	3.11357088e+02
301             	3.11367816e+02
302             	3.11378479e+02
303             	3.11389069e+02
304             	3.11399549e+02
305             	3.11410002e+02
306             	3.11420357e+02
307             	3.11430616e+02
308             	3.11440797e+02
309             	3.11450908e+02
310             	3.11460929e+02
311             	3.11470876e+02
312             	3.11480761e+02
313             	3.11490537e+02
314             	3.11500270e+02
315             	3.11509937e+02
316             	3.11519530e+02
317             	3.11529051e+02
318             	3.11538516e+02
319             	3.11547904e+02
320             	3.11557242e+02
321             	3.11566523e+02
322             	3.11575706e+02
323             	3.11584860e+02
324             	3.11593954e+02
325             	3.11602974e+02
326             	3.11611935e+02
327             	3.11620844e+02
328             	3.11629680e+02
329             	3.11638455e+02
330             	3.11647178e+02
331             	3.11655811e+02
332             	3.11664412e+02
333             	3.11672955e+02
334             	3.11681438e+02
335             	3.11689861e+02
336             	3.11698233e+02
337             	3.11706539e+02
338             	3.11714791e+02
339             	3.11722987e+02
340             	3.11731074e+02
341             	3.11739142e+02
342             	3.11747146e+02
343             	3.11755062e+02
344             	3.11762921e+02
345             	3.11770735e+02
346             	3.11778483e+02
347             	3.11786175e+02
348             	3.11793813e+02
349             	3.11801353e+02
350             	3.11808870e+02
351             	3.11816330e+02
352             	3.11823731e+02
353             	3.11831083e+02
354             	3.11838400e+02
355             	3.11845662e+02
356             	3.11852885e+02
357             	3.11860058e+02
358             	3.11867141e+02
359             	3.11874219e+02
360             	3.11881249e+02
361             	3.11888224e+02
362             	3.11895155e+02
363             	3.11902040e+02
364             	3.11908872e+02
365             	3.11915660e+02
366             	3.11922414e+02
367             	3.11929072e+02
368             	3.11935728e+02
369             	3.11942339e+02
370             	3.11948899e+02
371             	3.11955418e+02
372             	3.11961906e+02
373             	3.11968342e+02
374             	3.11974737e+02
375             	3.11981089e+02
376             	3.11987343e+02
377             	3.11993601e+02
378             	3.11999811e+02
379             	3.12005966e+02
380             	3.12012080e+02
381             	3.12018160e+02
382             	3.12024190e+02
383             	3.12030178e+02
384             	3.12036133e+02
385             	3.12041983e+02
386             	3.12047847e+02
387             	3.12053667e+02
388             	3.12059427e+02
389             	3.12065152e+02
390             	3.12070847e+02
391             	3.12076499e+02
392             	3.12082118e+02
393             	3.12087701e+02
394             	3.12093193e+02
395             	3.12098697e+02
396             	3.12104161e+02
397             	3.12109570e+02
398             	3.12114950e+02
399             	3.12120304e+02
400             	3.12125614e+02
401             	3.12130893e+02
402             	3.12136138e+02
403             	3.12141296e+02
404             	3.12146469e+02
405             	3.12151606e+02
406             	3.12156695e+02
407             	3.12161752e+02
408             	3.12166785e+02
409             	3.12171778e+02
410             	3.12176740e+02
411             	3.12181669e+02
412             	3.12186499e+02
413             	3.12191354e+02
414             	3.12196167e+02
415             	3.12200934e+02
416             	3.12205668e+02
417             	3.12210385e+02
418             	3.12215061e+02
419             	3.12219707e+02
420             	3.12224322e+02
421             	3.12228842e+02
422             	3.12233387e+02
423             	3.12237889e+02
424             	3.12242351e+02
425             	3.12246790e+02
426             	3.12251205e+02
427             	3.12255589e+02
428             	3.12259948e+02
429             	3.12264281e+02
430             	3.12268525e+02
431             	3.12272790e+02
432             	3.12277024e+02
433             	3.12281217e+02
434             	3.12285396e+02
435             	3.12289555e+02
436             	3.12293681e+02
437             	3.12297786e+02
438             	3.12301864e+02
439             	3.12305847e+02
440             	3.12309860e+02
441             	3.12313835e+02
442             	3.12317766e+02
443             	3.12321671e+02
444             	3.12325565e+02
445             	3.12329422e+02
446             	3.12333254e+02
447             	3.12337061e+02
448             	3.12340774e+02
449             	3.12344514e+02
450             	3.12348219e+02
451             	3.12351885e+02
452             	3.12355536e+02
453             	3.12359167e+02
454             	3.12362771e+02
455             	3.12366350e+02
456             	3.12369907e+02
457             	3.12373374e+02
458             	3.12376880e+02
459             	3.12380357e+02
460             	3.12383798e+02
461             	3.12387215e+02
462             	3.12390634e+02
463             	3.12394027e+02
464             	3.12397400e+02
465             	3.12400750e+02
466             	3.12404012e+02
467             	3.12407311e+02
468             	3.12410581e+02
469             	3.12413811e+02
470             	3.12417026e+02
471             	3.12420231e+02
472             	3.12423413e+02
473             	3.12426573e+02
474             	3.12429707e+02
475             	3.12432756e+02
476             	3.12435839e+02
477             	3.12438890e+02
478             	3.12441906e+02
479             	3.12444904e+02
480             	3.12447904e+02
481             	3.12450879e+02
482             	3.12453835e+02
483             	3.12456769e+02
484             	3.12459620e+02
485             	3.12462507e+02
486             	3.12465357e+02
487             	3.12468176e+02
488             	3.12470983e+02
489             	3.12473783e+02
490             	3.12476569e+02
491             	3.12479333e+02
492             	3.12482076e+02
493             	3.12484742e+02
494             	3.12487441e+02
495             	3.12490116e+02
496             	3.12492757e+02
497             	3.12495388e+02
498             	3.12498015e+02
499             	3.12500627e+02
500             	3.12503223e+02
501             	3.12505802e+02
502             	3.12508309e+02
503             	3.12510848e+02
504             	3.12513365e+02
505             	3.12515850e+02
506             	3.12518320e+02
507             	3.12520792e+02
508             	3.12523249e+02
509             	3.12525690e+02
510             	3.12528113e+02
511             	3.12530463e+02
512             	3.12532846e+02
513             	3.12535211e+02
514             	3.12537542e+02
515             	3.12539863e+02
516             	3.12542187e+02
517             	3.12544495e+02
518             	3.12546788e+02
519             	3.12549065e+02
520             	3.12551280e+02
521             	3.12553525e+02
522             	3.12555746e+02
523             	3.12557935e+02
524             	3.12560114e+02
525             	3.12562297e+02
526             	3.12564466e+02
527             	3.12566619e+02
528             	3.12568753e+02
529             	3.12570825e+02
530             	3.12572922e+02
531             	3.12575001e+02
532             	3.12577047e+02
533             	3.12579088e+02
534             	3.12581132e+02
535             	3.12583165e+02
536             	3.12585175e+02
537             	3.12587175e+02
538             	3.12589117e+02
539             	3.12591079e+02
540             	3.12593019e+02
541             	3.12594932e+02
542             	3.12596842e+02
543             	3.12598756e+02
544             	3.12600662e+02
545             	3.12602555e+02
546             	3.12604434e+02
547             	3.12606259e+02
548             	3.12608105e+02
549             	3.12609935e+02
550             	3.12611732e+02
551             	3.12613527e+02
552             	3.12615323e+02
553             	3.12617112e+02
554             	3.12618888e+02
555             	3.12620650e+02
556             	3.12622362e+02
557             	3.12624092e+02
558             	3.12625805e+02
559             	3.12627490e+02
560             	3.12629177e+02
561             	3.12630866e+02
562             	3.12632550e+02
563             	3.12634223e+02
564             	3.12635884e+02
565             	3.12637498e+02
566             	3.12639129e+02
567             	3.12640742e+02
568             	3.12642328e+02
569             	3.12643913e+02
570             	3.12645500e+02
571             	3.12647081e+02
572             	3.12648651e+02
573             	3.12650208e+02
574             	3.12651722e+02
575             	3.12653249e+02
576             	3.12654759e+02
577             	3.12656241e+02
578             	3.12657724e+02
579             	3.12659210e+02
580             	3.12660691e+02
581             	3.12662162e+02
582             	3.12663622e+02
583             	3.12665044e+02
584             	3.12666478e+02
585             	3.12667898e+02
586             	3.12669294e+02
587             	3.12670692e+02
588             	3.12672093e+02
589             	3.12673491e+02
590             	3.12674880e+02
591             	3.12676258e+02
592             	3.12677606e+02
593             	3.12678960e+02
594             	3.12680302e+02
595             	3.12681616e+02
596             	3.12682932e+02
597             	3.12684232e+02
598             	3.12685533e+02
599             	3.12686826e+02
600             	3.12688104e+02
601             	3.12689347e+02
602             	3.12690597e+02
603             	3.12691838e+02
604             	3.12693049e+02
605             	3.12694266e+02
606             	3.12695485e+02
607             	3.12696702e+02
608             	3.12697911e+02
609             	3.12699119e+02
610             	3.12700296e+02
611             	3.12701484e+02
612             	3.12702664e+02
613             	3.12703820e+02
614             	3.12704979e+02
615             	3.12706136e+02
616             	3.12707289e+02
617             	3.12708433e+02
618             	3.12709570e+02
619             	3.12710676e+02
620             	3.12711788e+02
621             	3.12712888e+02
