# Region        : cellZone fluid
# Cells         : 8896
# Volume        : 1.74806521e+01
# Time          	volAverage(T)
1               	3.00000150e+02
2               	3.00000313e+02
3               	3.00001499e+02
4               	3.00003529e+02
5               	3.00005148e+02
6               	3.00006762e+02
7               	3.00008484e+02
8               	3.00011080e+02
9               	3.00013450e+02
10              	3.00016401e+02
11              	3.00019534e+02
12              	3.00023115e+02
13              	3.00026900e+02
14              	3.00031353e+02
15              	3.00035767e+02
16              	3.00040011e+02
17              	3.00044106e+02
18              	3.00049018e+02
19              	3.00054447e+02
20              	3.00060337e+02
21              	3.00066690e+02
22              	3.00071567e+02
23              	3.00077837e+02
24              	3.00083360e+02
25              	3.00089560e+02
26              	3.00096518e+02
27              	3.00102283e+02
28              	3.00107300e+02
29              	3.00112131e+02
30              	3.00117231e+02
31              	3.00122755e+02
32              	3.00128464e+02
33              	3.00133946e+02
34              	3.00139836e+02
35              	3.00147263e+02
36              	3.00152829e+02
37              	3.00158805e+02
38              	3.00164771e+02
39              	3.00171918e+02
40              	3.00178811e+02
41              	3.00186007e+02
42              	3.00195382e+02
43              	3.00201988e+02
44              	3.00209281e+02
45              	3.00218458e+02
46              	3.00225483e+02
47              	3.00232232e+02
48              	3.00238067e+02
49              	3.00244206e+02
50              	3.00249470e+02
51              	3.00255556e+02
52              	3.00261806e+02
53              	3.00268891e+02
54              	3.00277181e+02
55              	3.00281879e+02
56              	3.00288812e+02
57              	3.00295343e+02
58              	3.00300976e+02
59              	3.00307438e+02
60              	3.00314280e+02
61              	3.00322298e+02
62              	3.00330385e+02
63              	3.00336800e+02
64              	3.00343582e+02
65              	3.00350693e+02
66              	3.00358079e+02
67              	3.00363020e+02
68              	3.00371383e+02
69              	3.00378707e+02
70              	3.00384807e+02
71              	3.00391655e+02
72              	3.00399161e+02
73              	3.00405216e+02
74              	3.00410379e+02
75              	3.00415972e+02
76              	3.00420283e+02
77              	3.00427163e+02
78              	3.00431866e+02
79              	3.00437592e+02
80              	3.00444013e+02
81              	3.00448610e+02
82              	3.00454902e+02
83              	3.00461107e+02
84              	3.00468815e+02
85              	3.00471870e+02
86              	3.00475264e+02
87              	3.00480802e+02
88              	3.00484693e+02
89              	3.00489495e+02
90              	3.00493262e+02
91              	3.00498337e+02
92              	3.00504322e+02
93              	3.00508740e+02
94              	3.00513884e+02
95              	3.00517282e+02
96              	3.00521919e+02
97              	3.00524583e+02
98              	3.00529523e+02
99              	3.00534575e+02
100             	3.00538852e+02
101             	3.00544968e+02
102             	3.00549469e+02
103             	3.00553115e+02
104             	3.00556403e+02
105             	3.00560094e+02
106             	3.00565365e+02
107             	3.00568276e+02
108             	3.00573161e+02
109             	3.00575790e+02
110             	3.00580375e+02
111             	3.00585100e+02
112             	3.00585742e+02
113             	3.00589169e+02
114             	3.00590201e+02
115             	3.00592807e+02
116             	3.00595511e+02
117             	3.00596822e+02
118             	3.00602079e+02
119             	3.00609071e+02
120             	3.00613506e+02
121             	3.00616807e+02
122             	3.00618425e+02
123             	3.00618977e+02
124             	3.00622977e+02
125             	3.00627535e+02
126             	3.00625940e+02
127             	3.00626686e+02
128             	3.00628538e+02
129             	3.00629556e+02
130             	3.00631080e+02
131             	3.00633074e+02
132             	3.00635059e+02
133             	3.00640720e+02
134             	3.00643751e+02
135             	3.00645608e+02
136             	3.00650304e+02
137             	3.00653124e+02
138             	3.00652906e+02
139             	3.00651150e+02
140             	3.00650268e+02
141             	3.00650802e+02
142             	3.00653482e+02
143             	3.00653701e+02
144             	3.00654108e+02
145             	3.00655822e+02
146             	3.00656493e+02
147             	3.00658311e+02
148             	3.00660257e+02
149             	3.00660397e+02
150             	3.00659721e+02
151             	3.00659453e+02
152             	3.00659212e+02
153             	3.00659517e+02
154             	3.00660911e+02
155             	3.00662165e+02
156             	3.00664427e+02
157             	3.00663755e+02
158             	3.00666195e+02
159             	3.00668666e+02
160             	3.00670722e+02
161             	3.00672838e+02
162             	3.00672951e+02
163             	3.00672577e+02
164             	3.00671765e+02
165             	3.00671334e+02
166             	3.00673205e+02
167             	3.00675099e+02
168             	3.00674789e+02
169             	3.00675495e+02
170             	3.00677383e+02
171             	3.00679745e+02
172             	3.00682381e+02
173             	3.00682214e+02
174             	3.00680768e+02
175             	3.00681620e+02
176             	3.00681482e+02
177             	3.00681319e+02
178             	3.00679477e+02
179             	3.00679415e+02
180             	3.00679696e+02
181             	3.00679926e+02
182             	3.00679358e+02
183             	3.00679798e+02
184             	3.00680274e+02
185             	3.00678973e+02
186             	3.00678860e+02
187             	3.00681079e+02
188             	3.00680006e+02
189             	3.00679659e+02
190             	3.00679138e+02
191             	3.00679387e+02
192             	3.00679790e+02
193             	3.00681168e+02
194             	3.00683464e+02
195             	3.00686747e+02
196             	3.00690662e+02
197             	3.00693381e+02
198             	3.00693032e+02
199             	3.00692732e+02
200             	3.00693562e+02
201             	3.00692223e+02
202             	3.00690708e+02
203             	3.00690150e+02
204             	3.00692236e+02
205             	3.00697606e+02
206             	3.00696807e+02
207             	3.00697872e+02
208             	3.00700647e+02
209             	3.00701116e+02
210             	3.00701077e+02
211             	3.00700177e+02
212             	3.00699934e+02
213             	3.00698907e+02
214             	3.00698582e+02
215             	3.00695958e+02
216             	3.00696951e+02
217             	3.00694870e+02
218             	3.00694093e+02
219             	3.00693255e+02
220             	3.00692716e+02
221             	3.00692644e+02
222             	3.00691934e+02
223             	3.00692305e+02
224             	3.00692014e+02
225             	3.00691906e+02
226             	3.00691500e+02
227             	3.00691109e+02
228             	3.00691064e+02
229             	3.00692254e+02
230             	3.00693576e+02
231             	3.00693795e+02
232             	3.00695304e+02
233             	3.00697417e+02
234             	3.00697920e+02
235             	3.00698193e+02
236             	3.00698686e+02
237             	3.00699965e+02
238             	3.00700369e+02
239             	3.00699727e+02
240             	3.00698787e+02
241             	3.00697723e+02
242             	3.00697394e+02
243             	3.00698407e+02
244             	3.00699069e+02
245             	3.00699177e+02
246             	3.00699283e+02
247             	3.00698857e+02
248             	3.00698588e+02
249             	3.00698727e+02
250             	3.00698345e+02
251             	3.00697693e+02
252             	3.00696815e+02
253             	3.00696140e+02
254             	3.00695874e+02
255             	3.00696637e+02
256             	3.00696919e+02
257             	3.00697551e+02
258             	3.00698432e+02
259             	3.00699490e+02
260             	3.00700458e+02
261             	3.00700754e+02
262             	3.00701107e+02
263             	3.00701173e+02
264             	3.00701953e+02
265             	3.00701707e+02
266             	3.00701435e+02
267             	3.00701156e+02
268             	3.00700972e+02
269             	3.00701159e+02
270             	3.00702052e+02
271             	3.00702118e+02
272             	3.00702423e+02
273             	3.00703166e+02
274             	3.00703000e+02
275             	3.00702236e+02
276             	3.00700316e+02
277             	3.00699640e+02
278             	3.00698310e+02
279             	3.00697421e+02
280             	3.00696934e+02
281             	3.00696716e+02
282             	3.00697906e+02
283             	3.00699028e+02
284             	3.00698400e+02
285             	3.00700960e+02
286             	3.00700218e+02
287             	3.00702168e+02
288             	3.00703031e+02
289             	3.00703908e+02
290             	3.00703256e+02
291             	3.00702220e+02
292             	3.00701305e+02
293             	3.00700808e+02
294             	3.00700946e+02
295             	3.00703220e+02
296             	3.00704026e+02
297             	3.00704788e+02
298             	3.00704677e+02
299             	3.00705270e+02
300             	3.00704778e+02
301             	3.00703402e+02
302             	3.00702743e+02
303             	3.00702801e+02
304             	3.00703080e+02
305             	3.00702021e+02
306             	3.00700611e+02
307             	3.00699956e+02
308             	3.00699626e+02
309             	3.00700301e+02
310             	3.00700930e+02
311             	3.00700261e+02
312             	3.00700597e+02
313             	3.00700480e+02
314             	3.00700479e+02
315             	3.00700055e+02
316             	3.00700932e+02
317             	3.00701412e+02
318             	3.00701776e+02
319             	3.00701372e+02
320             	3.00702700e+02
321             	3.00703355e+02
322             	3.00703501e+02
323             	3.00703662e+02
324             	3.00703416e+02
325             	3.00703493e+02
326             	3.00705120e+02
327             	3.00704161e+02
328             	3.00704179e+02
329             	3.00704718e+02
330             	3.00705666e+02
331             	3.00706610e+02
332             	3.00706960e+02
333             	3.00707811e+02
334             	3.00708362e+02
335             	3.00708585e+02
336             	3.00707811e+02
337             	3.00707233e+02
338             	3.00707391e+02
339             	3.00707105e+02
340             	3.00706871e+02
341             	3.00706656e+02
342             	3.00705890e+02
343             	3.00705707e+02
344             	3.00705263e+02
345             	3.00705596e+02
346             	3.00705845e+02
347             	3.00705673e+02
348             	3.00705931e+02
349             	3.00705537e+02
350             	3.00705736e+02
351             	3.00706014e+02
352             	3.00706223e+02
353             	3.00706542e+02
354             	3.00706969e+02
355             	3.00707166e+02
356             	3.00707110e+02
357             	3.00707071e+02
358             	3.00707094e+02
359             	3.00707185e+02
360             	3.00707563e+02
361             	3.00707717e+02
362             	3.00707971e+02
363             	3.00707761e+02
364             	3.00708699e+02
365             	3.00709592e+02
366             	3.00710162e+02
367             	3.00710755e+02
368             	3.00711109e+02
369             	3.00710956e+02
370             	3.00710793e+02
371             	3.00710350e+02
372             	3.00709834e+02
373             	3.00709554e+02
374             	3.00709320e+02
375             	3.00709117e+02
376             	3.00709057e+02
377             	3.00708617e+02
378             	3.00708489e+02
379             	3.00708494e+02
380             	3.00708567e+02
381             	3.00708808e+02
382             	3.00709129e+02
383             	3.00709186e+02
384             	3.00709538e+02
385             	3.00709586e+02
386             	3.00710154e+02
387             	3.00710591e+02
388             	3.00711042e+02
389             	3.00711252e+02
390             	3.00711646e+02
391             	3.00711953e+02
392             	3.00712185e+02
393             	3.00712351e+02
394             	3.00712446e+02
395             	3.00712437e+02
396             	3.00712450e+02
397             	3.00712473e+02
398             	3.00712433e+02
399             	3.00712274e+02
400             	3.00711628e+02
401             	3.00711090e+02
402             	3.00710838e+02
403             	3.00710499e+02
404             	3.00710143e+02
405             	3.00709856e+02
406             	3.00709576e+02
407             	3.00709391e+02
408             	3.00709307e+02
409             	3.00709392e+02
410             	3.00709526e+02
411             	3.00709849e+02
412             	3.00710220e+02
413             	3.00710252e+02
414             	3.00710918e+02
415             	3.00711070e+02
416             	3.00711695e+02
417             	3.00712202e+02
418             	3.00712510e+02
419             	3.00712796e+02
420             	3.00712964e+02
421             	3.00712955e+02
422             	3.00712771e+02
423             	3.00712776e+02
424             	3.00712527e+02
425             	3.00712363e+02
426             	3.00712284e+02
427             	3.00712302e+02
428             	3.00711937e+02
429             	3.00711733e+02
430             	3.00711529e+02
431             	3.00711401e+02
432             	3.00711066e+02
433             	3.00710834e+02
434             	3.00710666e+02
435             	3.00710490e+02
436             	3.00710242e+02
437             	3.00710002e+02
438             	3.00709851e+02
439             	3.00709821e+02
440             	3.00709776e+02
441             	3.00709823e+02
442             	3.00709939e+02
443             	3.00710106e+02
444             	3.00710487e+02
445             	3.00710761e+02
446             	3.00710992e+02
447             	3.00711237e+02
448             	3.00711672e+02
449             	3.00712007e+02
450             	3.00712244e+02
451             	3.00712404e+02
452             	3.00712527e+02
453             	3.00712412e+02
454             	3.00712268e+02
455             	3.00712103e+02
456             	3.00711901e+02
457             	3.00711660e+02
458             	3.00711403e+02
459             	3.00711520e+02
460             	3.00711592e+02
461             	3.00711235e+02
462             	3.00711034e+02
463             	3.00710923e+02
464             	3.00710861e+02
465             	3.00710826e+02
466             	3.00710829e+02
467             	3.00710928e+02
468             	3.00711066e+02
469             	3.00711205e+02
470             	3.00711317e+02
471             	3.00711388e+02
472             	3.00711656e+02
473             	3.00711795e+02
474             	3.00712124e+02
475             	3.00712348e+02
476             	3.00712575e+02
477             	3.00712884e+02
478             	3.00712984e+02
479             	3.00713079e+02
480             	3.00713159e+02
481             	3.00713220e+02
482             	3.00713249e+02
483             	3.00713270e+02
484             	3.00713248e+02
485             	3.00713221e+02
486             	3.00713165e+02
487             	3.00713072e+02
488             	3.00712965e+02
489             	3.00712836e+02
490             	3.00712700e+02
491             	3.00712595e+02
492             	3.00712497e+02
493             	3.00712397e+02
494             	3.00712314e+02
495             	3.00712259e+02
496             	3.00712233e+02
497             	3.00712232e+02
498             	3.00712271e+02
499             	3.00712322e+02
500             	3.00712391e+02
501             	3.00712402e+02
502             	3.00712453e+02
503             	3.00712661e+02
504             	3.00712651e+02
505             	3.00712722e+02
506             	3.00712827e+02
507             	3.00713005e+02
508             	3.00713196e+02
509             	3.00713340e+02
510             	3.00713442e+02
511             	3.00713474e+02
512             	3.00713472e+02
513             	3.00713432e+02
514             	3.00713451e+02
515             	3.00713406e+02
516             	3.00713338e+02
517             	3.00713316e+02
518             	3.00713221e+02
519             	3.00713104e+02
520             	3.00712999e+02
521             	3.00712862e+02
522             	3.00712726e+02
523             	3.00712683e+02
524             	3.00712574e+02
525             	3.00712497e+02
526             	3.00712520e+02
527             	3.00712417e+02
528             	3.00712388e+02
529             	3.00712361e+02
530             	3.00712403e+02
531             	3.00712468e+02
532             	3.00712553e+02
533             	3.00712630e+02
534             	3.00712716e+02
535             	3.00712814e+02
536             	3.00712816e+02
537             	3.00712975e+02
538             	3.00713081e+02
539             	3.00713189e+02
540             	3.00713298e+02
541             	3.00713376e+02
542             	3.00713431e+02
543             	3.00713463e+02
544             	3.00713472e+02
545             	3.00713460e+02
546             	3.00713441e+02
547             	3.00713391e+02
548             	3.00713323e+02
549             	3.00713255e+02
550             	3.00713173e+02
551             	3.00713104e+02
552             	3.00712964e+02
553             	3.00712859e+02
554             	3.00712769e+02
555             	3.00712700e+02
556             	3.00712653e+02
557             	3.00712624e+02
558             	3.00712614e+02
559             	3.00712625e+02
560             	3.00712655e+02
561             	3.00712681e+02
562             	3.00712738e+02
563             	3.00712800e+02
564             	3.00712866e+02
565             	3.00712935e+02
566             	3.00713018e+02
567             	3.00713098e+02
568             	3.00713176e+02
569             	3.00713250e+02
570             	3.00713289e+02
571             	3.00713337e+02
572             	3.00713306e+02
573             	3.00713363e+02
574             	3.00713369e+02
575             	3.00713343e+02
576             	3.00713300e+02
577             	3.00713246e+02
578             	3.00713180e+02
579             	3.00713107e+02
580             	3.00713067e+02
581             	3.00712994e+02
582             	3.00712999e+02
583             	3.00712921e+02
584             	3.00712905e+02
585             	3.00712827e+02
586             	3.00712800e+02
587             	3.00712803e+02
588             	3.00712827e+02
589             	3.00712867e+02
590             	3.00712868e+02
591             	3.00712929e+02
592             	3.00712998e+02
593             	3.00712998e+02
594             	3.00713097e+02
595             	3.00713171e+02
596             	3.00713241e+02
597             	3.00713351e+02
598             	3.00713423e+02
599             	3.00713468e+02
600             	3.00713487e+02
601             	3.00713490e+02
602             	3.00713482e+02
603             	3.00713468e+02
604             	3.00713450e+02
605             	3.00713448e+02
606             	3.00713363e+02
607             	3.00713334e+02
608             	3.00713296e+02
609             	3.00713249e+02
610             	3.00713202e+02
611             	3.00713156e+02
612             	3.00713113e+02
613             	3.00713074e+02
614             	3.00713038e+02
615             	3.00713001e+02
616             	3.00713001e+02
617             	3.00713008e+02
618             	3.00713024e+02
619             	3.00713037e+02
620             	3.00713063e+02
621             	3.00713097e+02
