# Region        : cellZone fluid
# Cells         : 8981
# Volume        : 1.76272859e+01
# Time          	volAverage(T)
1               	3.00000345e+02
2               	3.00000550e+02
3               	3.00001982e+02
4               	3.00004178e+02
5               	3.00005548e+02
6               	3.00006740e+02
7               	3.00007982e+02
8               	3.00009209e+02
9               	3.00010653e+02
10              	3.00012325e+02
11              	3.00014566e+02
12              	3.00017474e+02
13              	3.00020336e+02
14              	3.00023031e+02
15              	3.00025988e+02
16              	3.00028690e+02
17              	3.00031047e+02
18              	3.00033671e+02
19              	3.00036422e+02
20              	3.00039202e+02
21              	3.00042429e+02
22              	3.00045601e+02
23              	3.00049024e+02
24              	3.00052791e+02
25              	3.00056760e+02
26              	3.00060764e+02
27              	3.00063903e+02
28              	3.00066952e+02
29              	3.00070720e+02
30              	3.00073683e+02
31              	3.00077895e+02
32              	3.00081136e+02
33              	3.00085678e+02
34              	3.00090618e+02
35              	3.00094884e+02
36              	3.00099704e+02
37              	3.00105397e+02
38              	3.00109643e+02
39              	3.00113955e+02
40              	3.00118600e+02
41              	3.00123273e+02
42              	3.00128183e+02
43              	3.00133375e+02
44              	3.00137329e+02
45              	3.00141400e+02
46              	3.00145763e+02
47              	3.00151847e+02
48              	3.00157408e+02
49              	3.00162224e+02
50              	3.00167704e+02
51              	3.00173438e+02
52              	3.00178662e+02
53              	3.00183968e+02
54              	3.00188570e+02
55              	3.00193480e+02
56              	3.00197289e+02
57              	3.00203322e+02
58              	3.00207111e+02
59              	3.00212066e+02
60              	3.00216069e+02
61              	3.00220732e+02
62              	3.00224467e+02
63              	3.00227145e+02
64              	3.00230981e+02
65              	3.00233653e+02
66              	3.00236749e+02
67              	3.00239691e+02
68              	3.00242887e+02
69              	3.00245728e+02
70              	3.00249816e+02
71              	3.00257818e+02
72              	3.00260970e+02
73              	3.00265712e+02
74              	3.00270551e+02
75              	3.00275771e+02
76              	3.00279094e+02
77              	3.00283289e+02
78              	3.00289685e+02
79              	3.00297254e+02
80              	3.00301151e+02
81              	3.00304802e+02
82              	3.00310041e+02
83              	3.00318499e+02
84              	3.00322687e+02
85              	3.00326406e+02
86              	3.00329796e+02
87              	3.00334584e+02
88              	3.00340304e+02
89              	3.00344712e+02
90              	3.00347666e+02
91              	3.00351189e+02
92              	3.00354011e+02
93              	3.00355487e+02
94              	3.00360564e+02
95              	3.00364690e+02
96              	3.00367079e+02
97              	3.00367283e+02
98              	3.00367871e+02
99              	3.00369443e+02
100             	3.00370350e+02
101             	3.00371471e+02
102             	3.00373523e+02
103             	3.00375307e+02
104             	3.00381853e+02
105             	3.00384213e+02
106             	3.00387745e+02
107             	3.00392006e+02
108             	3.00397941e+02
109             	3.00402021e+02
110             	3.00403114e+02
111             	3.00405517e+02
112             	3.00406359e+02
113             	3.00408333e+02
114             	3.00409380e+02
115             	3.00410903e+02
116             	3.00412952e+02
117             	3.00416038e+02
118             	3.00420567e+02
119             	3.00425950e+02
120             	3.00431068e+02
121             	3.00437274e+02
122             	3.00441745e+02
123             	3.00447297e+02
124             	3.00449812e+02
125             	3.00451614e+02
126             	3.00451288e+02
127             	3.00453852e+02
128             	3.00455634e+02
129             	3.00455489e+02
130             	3.00453840e+02
131             	3.00454372e+02
132             	3.00459929e+02
133             	3.00463864e+02
134             	3.00467723e+02
135             	3.00472592e+02
136             	3.00476340e+02
137             	3.00475859e+02
138             	3.00479596e+02
139             	3.00481330e+02
140             	3.00487695e+02
141             	3.00490146e+02
142             	3.00490971e+02
143             	3.00487181e+02
144             	3.00487360e+02
145             	3.00489141e+02
146             	3.00490796e+02
147             	3.00492972e+02
148             	3.00494652e+02
149             	3.00497850e+02
150             	3.00502372e+02
151             	3.00512256e+02
152             	3.00513604e+02
153             	3.00517216e+02
154             	3.00520748e+02
155             	3.00526068e+02
156             	3.00529270e+02
157             	3.00531405e+02
158             	3.00531961e+02
159             	3.00532398e+02
160             	3.00532960e+02
161             	3.00532686e+02
162             	3.00533831e+02
163             	3.00536062e+02
164             	3.00537100e+02
165             	3.00539494e+02
166             	3.00539618e+02
167             	3.00541757e+02
168             	3.00543841e+02
169             	3.00547338e+02
170             	3.00551940e+02
171             	3.00552215e+02
172             	3.00558006e+02
173             	3.00559114e+02
174             	3.00559947e+02
175             	3.00560659e+02
176             	3.00559993e+02
177             	3.00559924e+02
178             	3.00560308e+02
179             	3.00559679e+02
180             	3.00559225e+02
181             	3.00559498e+02
182             	3.00562836e+02
183             	3.00564510e+02
184             	3.00565662e+02
185             	3.00569231e+02
186             	3.00573773e+02
187             	3.00574424e+02
188             	3.00577770e+02
189             	3.00580581e+02
190             	3.00581896e+02
191             	3.00582571e+02
192             	3.00583526e+02
193             	3.00583219e+02
194             	3.00583170e+02
195             	3.00585398e+02
196             	3.00583864e+02
197             	3.00583591e+02
198             	3.00582682e+02
199             	3.00583037e+02
200             	3.00581053e+02
201             	3.00584868e+02
202             	3.00587080e+02
203             	3.00588693e+02
204             	3.00589537e+02
205             	3.00589012e+02
206             	3.00589808e+02
207             	3.00592108e+02
208             	3.00596475e+02
209             	3.00598202e+02
210             	3.00600000e+02
211             	3.00600956e+02
212             	3.00600913e+02
213             	3.00600417e+02
214             	3.00602287e+02
215             	3.00599257e+02
216             	3.00598161e+02
217             	3.00599150e+02
218             	3.00598873e+02
219             	3.00598259e+02
220             	3.00599901e+02
221             	3.00598158e+02
222             	3.00599815e+02
223             	3.00600985e+02
224             	3.00602727e+02
225             	3.00600568e+02
226             	3.00597753e+02
227             	3.00596725e+02
228             	3.00597218e+02
229             	3.00597919e+02
230             	3.00597008e+02
231             	3.00601193e+02
232             	3.00604212e+02
233             	3.00610467e+02
234             	3.00608857e+02
235             	3.00609364e+02
236             	3.00606936e+02
237             	3.00607117e+02
238             	3.00606178e+02
239             	3.00604355e+02
240             	3.00602819e+02
241             	3.00602650e+02
242             	3.00603692e+02
243             	3.00603328e+02
244             	3.00602164e+02
245             	3.00601796e+02
246             	3.00601546e+02
247             	3.00601949e+02
248             	3.00601573e+02
249             	3.00600925e+02
250             	3.00599544e+02
251             	3.00601346e+02
252             	3.00601170e+02
253             	3.00600606e+02
254             	3.00599419e+02
255             	3.00597438e+02
256             	3.00598466e+02
257             	3.00604691e+02
258             	3.00603251e+02
259             	3.00603570e+02
260             	3.00604387e+02
261             	3.00604799e+02
262             	3.00605862e+02
263             	3.00605442e+02
264             	3.00604259e+02
265             	3.00604554e+02
266             	3.00606531e+02
267             	3.00606985e+02
268             	3.00606611e+02
269             	3.00605538e+02
270             	3.00605692e+02
271             	3.00608599e+02
272             	3.00610324e+02
273             	3.00608853e+02
274             	3.00607946e+02
275             	3.00608354e+02
276             	3.00608718e+02
277             	3.00609998e+02
278             	3.00612463e+02
279             	3.00612865e+02
280             	3.00613441e+02
281             	3.00612712e+02
282             	3.00613494e+02
283             	3.00613455e+02
284             	3.00613447e+02
285             	3.00613249e+02
286             	3.00613944e+02
287             	3.00614323e+02
288             	3.00614053e+02
289             	3.00613396e+02
290             	3.00612693e+02
291             	3.00612068e+02
292             	3.00611736e+02
293             	3.00612030e+02
294             	3.00611038e+02
295             	3.00610912e+02
296             	3.00610020e+02
297             	3.00610826e+02
298             	3.00610255e+02
299             	3.00610666e+02
300             	3.00611612e+02
301             	3.00613642e+02
302             	3.00617948e+02
303             	3.00620177e+02
304             	3.00620054e+02
305             	3.00623297e+02
306             	3.00622568e+02
307             	3.00621574e+02
308             	3.00620114e+02
309             	3.00618670e+02
310             	3.00617950e+02
311             	3.00616626e+02
312             	3.00615842e+02
313             	3.00614944e+02
314             	3.00613667e+02
315             	3.00614665e+02
316             	3.00616171e+02
317             	3.00615500e+02
318             	3.00615402e+02
319             	3.00614863e+02
320             	3.00614426e+02
321             	3.00614407e+02
322             	3.00614503e+02
323             	3.00614427e+02
324             	3.00614301e+02
325             	3.00614453e+02
326             	3.00614636e+02
327             	3.00613736e+02
328             	3.00613937e+02
329             	3.00615089e+02
330             	3.00615573e+02
331             	3.00615537e+02
332             	3.00615402e+02
333             	3.00615436e+02
334             	3.00614872e+02
335             	3.00614329e+02
336             	3.00614259e+02
337             	3.00614745e+02
338             	3.00617533e+02
339             	3.00617247e+02
340             	3.00616989e+02
341             	3.00616692e+02
342             	3.00616355e+02
343             	3.00616274e+02
344             	3.00616560e+02
345             	3.00616793e+02
346             	3.00616795e+02
347             	3.00617527e+02
348             	3.00618104e+02
349             	3.00618337e+02
350             	3.00617734e+02
351             	3.00617952e+02
352             	3.00617290e+02
353             	3.00617945e+02
354             	3.00617829e+02
355             	3.00617740e+02
356             	3.00616565e+02
357             	3.00617493e+02
358             	3.00619006e+02
359             	3.00618064e+02
360             	3.00618925e+02
361             	3.00620811e+02
362             	3.00621267e+02
363             	3.00622123e+02
364             	3.00623708e+02
365             	3.00627450e+02
366             	3.00628190e+02
367             	3.00630088e+02
368             	3.00628441e+02
369             	3.00627820e+02
370             	3.00626515e+02
371             	3.00625662e+02
372             	3.00624024e+02
373             	3.00623570e+02
374             	3.00624903e+02
375             	3.00625820e+02
376             	3.00624746e+02
377             	3.00625842e+02
378             	3.00626436e+02
379             	3.00628372e+02
380             	3.00630176e+02
381             	3.00633791e+02
382             	3.00636245e+02
383             	3.00637203e+02
384             	3.00636359e+02
385             	3.00638200e+02
386             	3.00637065e+02
387             	3.00636544e+02
388             	3.00637077e+02
389             	3.00636085e+02
390             	3.00636360e+02
391             	3.00634644e+02
392             	3.00635093e+02
393             	3.00634353e+02
394             	3.00633841e+02
395             	3.00632988e+02
396             	3.00631874e+02
397             	3.00631166e+02
398             	3.00630919e+02
399             	3.00630718e+02
400             	3.00630708e+02
401             	3.00631150e+02
402             	3.00631608e+02
403             	3.00631962e+02
404             	3.00632282e+02
405             	3.00632804e+02
406             	3.00633442e+02
407             	3.00632849e+02
408             	3.00633240e+02
409             	3.00633587e+02
410             	3.00633977e+02
411             	3.00634503e+02
412             	3.00634418e+02
413             	3.00634461e+02
414             	3.00634202e+02
415             	3.00633823e+02
416             	3.00633660e+02
417             	3.00633735e+02
418             	3.00633647e+02
419             	3.00633666e+02
420             	3.00633891e+02
421             	3.00634092e+02
422             	3.00634134e+02
423             	3.00634288e+02
424             	3.00634305e+02
425             	3.00634049e+02
426             	3.00633514e+02
427             	3.00633088e+02
428             	3.00633623e+02
429             	3.00632724e+02
430             	3.00632343e+02
431             	3.00632230e+02
432             	3.00632878e+02
433             	3.00633349e+02
434             	3.00633819e+02
435             	3.00634262e+02
436             	3.00634699e+02
437             	3.00635113e+02
438             	3.00635449e+02
439             	3.00635565e+02
440             	3.00636049e+02
441             	3.00636273e+02
442             	3.00636344e+02
443             	3.00636192e+02
444             	3.00636211e+02
445             	3.00635245e+02
446             	3.00635181e+02
447             	3.00634911e+02
448             	3.00634604e+02
449             	3.00634198e+02
450             	3.00633854e+02
451             	3.00633403e+02
452             	3.00633179e+02
453             	3.00632560e+02
454             	3.00633115e+02
455             	3.00632648e+02
456             	3.00632622e+02
457             	3.00632714e+02
458             	3.00632881e+02
459             	3.00633623e+02
460             	3.00634642e+02
461             	3.00635282e+02
462             	3.00635709e+02
463             	3.00636684e+02
464             	3.00637284e+02
465             	3.00637247e+02
466             	3.00636813e+02
467             	3.00636663e+02
468             	3.00636556e+02
469             	3.00636161e+02
470             	3.00635778e+02
471             	3.00635280e+02
472             	3.00634654e+02
473             	3.00634930e+02
474             	3.00633981e+02
475             	3.00633617e+02
476             	3.00633780e+02
477             	3.00633993e+02
478             	3.00633706e+02
479             	3.00633524e+02
480             	3.00633234e+02
481             	3.00632969e+02
482             	3.00632580e+02
483             	3.00632569e+02
484             	3.00632498e+02
485             	3.00632405e+02
486             	3.00632439e+02
487             	3.00632771e+02
488             	3.00633547e+02
489             	3.00633421e+02
490             	3.00633530e+02
491             	3.00633173e+02
492             	3.00633240e+02
493             	3.00632950e+02
494             	3.00632812e+02
495             	3.00632879e+02
496             	3.00632812e+02
497             	3.00632686e+02
498             	3.00632729e+02
499             	3.00632800e+02
500             	3.00632474e+02
501             	3.00632341e+02
502             	3.00632056e+02
503             	3.00632089e+02
504             	3.00632970e+02
505             	3.00632990e+02
506             	3.00633259e+02
507             	3.00633705e+02
508             	3.00633985e+02
509             	3.00634105e+02
510             	3.00634410e+02
511             	3.00634751e+02
512             	3.00634858e+02
513             	3.00634125e+02
514             	3.00634304e+02
515             	3.00634269e+02
516             	3.00634200e+02
517             	3.00634015e+02
518             	3.00633630e+02
519             	3.00633394e+02
520             	3.00633643e+02
521             	3.00633503e+02
522             	3.00634201e+02
523             	3.00633446e+02
524             	3.00633344e+02
525             	3.00633337e+02
526             	3.00633604e+02
527             	3.00633506e+02
528             	3.00632726e+02
529             	3.00633150e+02
530             	3.00633010e+02
531             	3.00632891e+02
532             	3.00632572e+02
533             	3.00632493e+02
534             	3.00632982e+02
535             	3.00631893e+02
536             	3.00631670e+02
537             	3.00631462e+02
538             	3.00632017e+02
539             	3.00631974e+02
540             	3.00632846e+02
541             	3.00633979e+02
542             	3.00634862e+02
543             	3.00635233e+02
544             	3.00635665e+02
545             	3.00635881e+02
546             	3.00636636e+02
547             	3.00635510e+02
548             	3.00635767e+02
549             	3.00635874e+02
550             	3.00635664e+02
551             	3.00635635e+02
552             	3.00635930e+02
553             	3.00636128e+02
554             	3.00635886e+02
555             	3.00636735e+02
556             	3.00638320e+02
557             	3.00638181e+02
558             	3.00637837e+02
559             	3.00637270e+02
560             	3.00637003e+02
561             	3.00636815e+02
562             	3.00636614e+02
563             	3.00636663e+02
564             	3.00636860e+02
565             	3.00636930e+02
566             	3.00636515e+02
567             	3.00635857e+02
568             	3.00636520e+02
569             	3.00636680e+02
570             	3.00636511e+02
571             	3.00636389e+02
572             	3.00635933e+02
573             	3.00635488e+02
574             	3.00635000e+02
575             	3.00634540e+02
576             	3.00634973e+02
577             	3.00635791e+02
578             	3.00635241e+02
579             	3.00635209e+02
580             	3.00635198e+02
581             	3.00635213e+02
582             	3.00635587e+02
583             	3.00635948e+02
584             	3.00635459e+02
585             	3.00635404e+02
586             	3.00636135e+02
587             	3.00636303e+02
588             	3.00636302e+02
589             	3.00636170e+02
590             	3.00635933e+02
591             	3.00635946e+02
592             	3.00636087e+02
593             	3.00636262e+02
594             	3.00636218e+02
595             	3.00637014e+02
596             	3.00636443e+02
597             	3.00636047e+02
598             	3.00636142e+02
599             	3.00636045e+02
600             	3.00636068e+02
601             	3.00636148e+02
602             	3.00636394e+02
603             	3.00636530e+02
604             	3.00636645e+02
605             	3.00636328e+02
606             	3.00636697e+02
607             	3.00636814e+02
608             	3.00636593e+02
609             	3.00636481e+02
610             	3.00636291e+02
611             	3.00636042e+02
612             	3.00636052e+02
613             	3.00635981e+02
614             	3.00635819e+02
615             	3.00635857e+02
616             	3.00635877e+02
617             	3.00635859e+02
618             	3.00635807e+02
619             	3.00636009e+02
620             	3.00636189e+02
621             	3.00636301e+02
