# Region        : cellZone component_2
# Cells         : 21
# Volume        : 2.47013187e-02
# Time          	volAverage(T)
1               	3.02219374e+02
2               	3.04378602e+02
3               	3.06286827e+02
4               	3.08054321e+02
5               	3.09754516e+02
6               	3.11408712e+02
7               	3.13021628e+02
8               	3.14592674e+02
9               	3.16139512e+02
10              	3.17652605e+02
11              	3.19119283e+02
12              	3.20532184e+02
13              	3.21900907e+02
14              	3.23216956e+02
15              	3.24469672e+02
16              	3.25709452e+02
17              	3.26839774e+02
18              	3.27949096e+02
19              	3.29019863e+02
20              	3.30043094e+02
21              	3.31059270e+02
22              	3.32045619e+02
23              	3.33008902e+02
24              	3.33937105e+02
25              	3.34840420e+02
26              	3.35736906e+02
27              	3.36609969e+02
28              	3.37428130e+02
29              	3.38256630e+02
30              	3.39039570e+02
31              	3.39900952e+02
32              	3.40705326e+02
33              	3.41486718e+02
34              	3.42185872e+02
35              	3.42972178e+02
36              	3.43583074e+02
37              	3.44118959e+02
38              	3.44600852e+02
39              	3.45089862e+02
40              	3.45535984e+02
41              	3.45980149e+02
42              	3.46372575e+02
43              	3.46702409e+02
44              	3.47075184e+02
45              	3.47139727e+02
46              	3.47301571e+02
47              	3.47583984e+02
48              	3.47851763e+02
49              	3.48040367e+02
50              	3.48298486e+02
51              	3.48596052e+02
52              	3.48867545e+02
53              	3.49125105e+02
54              	3.49350049e+02
55              	3.49525999e+02
56              	3.49662590e+02
57              	3.49799272e+02
58              	3.49855826e+02
59              	3.49939411e+02
60              	3.50071322e+02
61              	3.50097984e+02
62              	3.50015534e+02
63              	3.49993282e+02
64              	3.49981567e+02
65              	3.50031569e+02
66              	3.50035455e+02
67              	3.50056531e+02
68              	3.50109540e+02
69              	3.50057804e+02
70              	3.50054370e+02
71              	3.50164891e+02
72              	3.50378159e+02
73              	3.50478488e+02
74              	3.50541971e+02
75              	3.50607423e+02
76              	3.50668770e+02
77              	3.50721599e+02
78              	3.50775720e+02
79              	3.50836257e+02
80              	3.50907020e+02
81              	3.50989063e+02
82              	3.51076078e+02
83              	3.51159443e+02
84              	3.51235349e+02
85              	3.51308131e+02
86              	3.51374081e+02
87              	3.51431348e+02
88              	3.51489083e+02
89              	3.51533136e+02
90              	3.51568438e+02
91              	3.51602793e+02
92              	3.51640151e+02
93              	3.51690235e+02
94              	3.51880520e+02
95              	3.52114127e+02
96              	3.52228180e+02
97              	3.52479552e+02
98              	3.52701953e+02
99              	3.52867180e+02
100             	3.53033719e+02
101             	3.53229118e+02
102             	3.53457575e+02
103             	3.53612975e+02
104             	3.53820825e+02
105             	3.53989307e+02
106             	3.54214426e+02
107             	3.54451240e+02
108             	3.54701442e+02
109             	3.54917932e+02
110             	3.55121863e+02
111             	3.55278151e+02
112             	3.55417960e+02
113             	3.55561739e+02
114             	3.55699845e+02
115             	3.55832276e+02
116             	3.55979366e+02
117             	3.56131426e+02
118             	3.56291667e+02
119             	3.56426643e+02
120             	3.56538799e+02
121             	3.56667726e+02
122             	3.56823863e+02
123             	3.56974470e+02
124             	3.57119100e+02
125             	3.57258600e+02
126             	3.57422855e+02
127             	3.57597387e+02
128             	3.57776876e+02
129             	3.57976501e+02
130             	3.58195104e+02
131             	3.58441491e+02
132             	3.58649115e+02
133             	3.58916108e+02
134             	3.59124436e+02
135             	3.59379239e+02
136             	3.59581124e+02
137             	3.59821311e+02
138             	3.60003723e+02
139             	3.60220472e+02
140             	3.60443053e+02
141             	3.60633773e+02
142             	3.60923780e+02
143             	3.61207024e+02
144             	3.61495258e+02
145             	3.61746175e+02
146             	3.61938449e+02
147             	3.62086139e+02
148             	3.62217300e+02
149             	3.62354936e+02
150             	3.62508375e+02
151             	3.62563490e+02
152             	3.62655378e+02
153             	3.62698740e+02
154             	3.62765211e+02
155             	3.62833296e+02
156             	3.62895796e+02
157             	3.62952454e+02
158             	3.63005039e+02
159             	3.63059468e+02
160             	3.63140078e+02
161             	3.63237280e+02
162             	3.63327081e+02
163             	3.63418624e+02
164             	3.63512555e+02
165             	3.63545072e+02
166             	3.63612252e+02
167             	3.63589876e+02
168             	3.63603958e+02
169             	3.63554048e+02
170             	3.63536288e+02
171             	3.63526877e+02
172             	3.63531149e+02
173             	3.63544234e+02
174             	3.63563077e+02
175             	3.63586436e+02
176             	3.63596595e+02
177             	3.63617429e+02
178             	3.63638600e+02
179             	3.63671879e+02
180             	3.63632237e+02
181             	3.63649729e+02
182             	3.63631179e+02
183             	3.63686405e+02
184             	3.63702414e+02
185             	3.63785360e+02
186             	3.63810278e+02
187             	3.63882902e+02
188             	3.63984853e+02
189             	3.64006847e+02
190             	3.64059519e+02
191             	3.64122034e+02
192             	3.64191250e+02
193             	3.64262499e+02
194             	3.64364618e+02
195             	3.64490558e+02
196             	3.64549771e+02
197             	3.64644575e+02
198             	3.64669126e+02
199             	3.64726463e+02
200             	3.64735849e+02
201             	3.64776853e+02
202             	3.64763834e+02
203             	3.64781005e+02
204             	3.64822581e+02
205             	3.64794514e+02
206             	3.64802696e+02
207             	3.64835072e+02
208             	3.64885702e+02
209             	3.64953805e+02
210             	3.65047539e+02
211             	3.65071332e+02
212             	3.65142596e+02
213             	3.65163794e+02
214             	3.65223087e+02
215             	3.65237564e+02
216             	3.65286304e+02
217             	3.65353021e+02
218             	3.65347377e+02
219             	3.65374323e+02
220             	3.65418178e+02
221             	3.65473711e+02
222             	3.65461356e+02
223             	3.65487251e+02
224             	3.65548708e+02
225             	3.65520180e+02
226             	3.65531226e+02
227             	3.65486256e+02
228             	3.65472830e+02
229             	3.65480306e+02
230             	3.65423701e+02
231             	3.65404982e+02
232             	3.65406280e+02
233             	3.65422418e+02
234             	3.65357819e+02
235             	3.65337114e+02
236             	3.65340466e+02
237             	3.65299736e+02
238             	3.65308422e+02
239             	3.65254640e+02
240             	3.65246764e+02
241             	3.65200961e+02
242             	3.65208585e+02
243             	3.65170785e+02
244             	3.65179664e+02
245             	3.65207531e+02
246             	3.65250825e+02
247             	3.65221496e+02
248             	3.65234736e+02
249             	3.65265682e+02
250             	3.65242669e+02
251             	3.65256923e+02
252             	3.65221906e+02
253             	3.65224780e+02
254             	3.65176098e+02
255             	3.65165708e+02
256             	3.65103693e+02
257             	3.65078479e+02
258             	3.65077815e+02
259             	3.65009917e+02
260             	3.64987210e+02
261             	3.64992683e+02
262             	3.64935663e+02
263             	3.64925046e+02
264             	3.64948382e+02
265             	3.64897797e+02
266             	3.64895468e+02
267             	3.64858452e+02
268             	3.64867399e+02
269             	3.64831857e+02
270             	3.64844239e+02
271             	3.64814613e+02
272             	3.64834547e+02
273             	3.64813667e+02
274             	3.64841151e+02
275             	3.64832334e+02
276             	3.64870242e+02
277             	3.64855610e+02
278             	3.64875989e+02
279             	3.64917402e+02
280             	3.64900798e+02
281             	3.64920097e+02
282             	3.64958483e+02
283             	3.65011903e+02
284             	3.64983237e+02
285             	3.64995935e+02
286             	3.65038907e+02
287             	3.65005771e+02
288             	3.65018210e+02
289             	3.64994533e+02
290             	3.65013464e+02
291             	3.64977898e+02
292             	3.64987851e+02
293             	3.64961223e+02
294             	3.64986809e+02
295             	3.64979252e+02
296             	3.65026862e+02
297             	3.65039913e+02
298             	3.65098363e+02
299             	3.65194304e+02
300             	3.65206336e+02
301             	3.65259133e+02
302             	3.65341658e+02
303             	3.65345997e+02
304             	3.65388997e+02
305             	3.65451723e+02
306             	3.65447462e+02
307             	3.65481466e+02
308             	3.65468483e+02
309             	3.65488524e+02
310             	3.65458319e+02
311             	3.65465304e+02
312             	3.65423871e+02
313             	3.65418547e+02
314             	3.65438340e+02
315             	3.65392844e+02
316             	3.65389075e+02
317             	3.65411192e+02
318             	3.65368848e+02
319             	3.65362073e+02
320             	3.65376341e+02
321             	3.65326877e+02
322             	3.65314712e+02
323             	3.65331393e+02
324             	3.65271136e+02
325             	3.65254306e+02
326             	3.65197720e+02
327             	3.65185431e+02
328             	3.65134667e+02
329             	3.65130037e+02
330             	3.65081451e+02
331             	3.65082335e+02
332             	3.65042980e+02
333             	3.65054692e+02
334             	3.65018094e+02
335             	3.65040455e+02
336             	3.65014145e+02
337             	3.64992950e+02
338             	3.64974686e+02
339             	3.65008309e+02
340             	3.65036701e+02
341             	3.65019750e+02
342             	3.65064619e+02
343             	3.65102981e+02
344             	3.65077747e+02
345             	3.65102829e+02
346             	3.65124764e+02
347             	3.65106473e+02
348             	3.65142121e+02
349             	3.65173089e+02
350             	3.65160292e+02
351             	3.65223273e+02
352             	3.65278060e+02
353             	3.65265230e+02
354             	3.65322054e+02
355             	3.65372045e+02
356             	3.65359634e+02
357             	3.65388247e+02
358             	3.65414649e+02
359             	3.65404740e+02
360             	3.65431326e+02
361             	3.65454594e+02
362             	3.65436161e+02
363             	3.65466288e+02
364             	3.65491567e+02
365             	3.65460937e+02
366             	3.65466507e+02
367             	3.65470518e+02
368             	3.65434531e+02
369             	3.65456236e+02
370             	3.65472829e+02
371             	3.65417899e+02
372             	3.65407062e+02
373             	3.65395556e+02
374             	3.65345509e+02
375             	3.65356102e+02
376             	3.65362824e+02
377             	3.65312819e+02
378             	3.65326433e+02
379             	3.65336580e+02
380             	3.65288908e+02
381             	3.65301019e+02
382             	3.65310088e+02
383             	3.65316832e+02
384             	3.65271844e+02
385             	3.65232659e+02
386             	3.65250277e+02
387             	3.65213233e+02
388             	3.65181275e+02
389             	3.65207609e+02
390             	3.65171923e+02
391             	3.65139683e+02
392             	3.65173412e+02
393             	3.65142161e+02
394             	3.65114297e+02
395             	3.65153175e+02
396             	3.65123674e+02
397             	3.65097645e+02
398             	3.65140062e+02
399             	3.65116866e+02
400             	3.65097996e+02
401             	3.65140599e+02
402             	3.65123592e+02
403             	3.65109783e+02
404             	3.65151843e+02
405             	3.65134414e+02
406             	3.65119692e+02
407             	3.65107827e+02
408             	3.65127946e+02
409             	3.65144069e+02
410             	3.65116347e+02
411             	3.65125124e+02
412             	3.65131194e+02
413             	3.65099135e+02
414             	3.65106804e+02
415             	3.65111820e+02
416             	3.65076082e+02
417             	3.65111802e+02
418             	3.65141671e+02
419             	3.65095422e+02
420             	3.65127056e+02
421             	3.65153868e+02
422             	3.65106527e+02
423             	3.65136279e+02
424             	3.65161449e+02
425             	3.65116330e+02
426             	3.65137649e+02
427             	3.65156237e+02
428             	3.65120273e+02
429             	3.65130745e+02
430             	3.65138810e+02
431             	3.65104715e+02
432             	3.65140826e+02
433             	3.65171059e+02
434             	3.65124977e+02
435             	3.65150781e+02
436             	3.65172648e+02
437             	3.65127352e+02
438             	3.65149707e+02
439             	3.65168660e+02
440             	3.65184647e+02
441             	3.65144220e+02
442             	3.65111547e+02
443             	3.65131979e+02
444             	3.65094504e+02
445             	3.65061484e+02
446             	3.65092702e+02
447             	3.65052336e+02
448             	3.65016144e+02
449             	3.65051183e+02
450             	3.65015847e+02
451             	3.64984308e+02
452             	3.65021044e+02
453             	3.64990162e+02
454             	3.64962678e+02
455             	3.65001500e+02
456             	3.64972433e+02
457             	3.64946621e+02
458             	3.64980352e+02
459             	3.64955164e+02
460             	3.64933163e+02
461             	3.64974949e+02
462             	3.64946579e+02
463             	3.64921647e+02
464             	3.64964185e+02
465             	3.64931055e+02
466             	3.64901522e+02
467             	3.64938587e+02
468             	3.64903308e+02
469             	3.64871514e+02
470             	3.64904207e+02
471             	3.64870969e+02
472             	3.64841005e+02
473             	3.64874749e+02
474             	3.64844753e+02
475             	3.64818210e+02
476             	3.64794841e+02
477             	3.64807773e+02
478             	3.64816717e+02
479             	3.64786449e+02
480             	3.64819525e+02
481             	3.64847174e+02
482             	3.64805939e+02
483             	3.64835438e+02
484             	3.64860481e+02
485             	3.64818371e+02
486             	3.64846868e+02
487             	3.64871399e+02
488             	3.64832172e+02
489             	3.64862016e+02
490             	3.64888014e+02
491             	3.64910224e+02
492             	3.64874560e+02
493             	3.64846343e+02
494             	3.64878915e+02
495             	3.64851004e+02
496             	3.64827713e+02
497             	3.64807690e+02
498             	3.64844127e+02
499             	3.64874983e+02
500             	3.64847342e+02
501             	3.64881565e+02
502             	3.64911566e+02
503             	3.64937447e+02
504             	3.64903668e+02
505             	3.64875749e+02
506             	3.64902947e+02
507             	3.64872595e+02
508             	3.64845912e+02
509             	3.64874490e+02
510             	3.64844620e+02
511             	3.64818201e+02
512             	3.64851930e+02
513             	3.64820614e+02
514             	3.64794102e+02
515             	3.64831696e+02
516             	3.64803380e+02
517             	3.64779772e+02
518             	3.64813264e+02
519             	3.64791455e+02
520             	3.64773481e+02
521             	3.64809037e+02
522             	3.64791144e+02
523             	3.64776669e+02
524             	3.64813589e+02
525             	3.64793446e+02
526             	3.64776169e+02
527             	3.64762006e+02
528             	3.64799753e+02
529             	3.64831697e+02
530             	3.64803545e+02
531             	3.64833261e+02
532             	3.64859282e+02
533             	3.64828272e+02
534             	3.64856034e+02
535             	3.64880281e+02
536             	3.64849034e+02
537             	3.64876270e+02
538             	3.64900146e+02
539             	3.64869061e+02
540             	3.64900625e+02
541             	3.64928313e+02
542             	3.64896972e+02
543             	3.64928305e+02
544             	3.64955982e+02
545             	3.64925556e+02
546             	3.64952665e+02
547             	3.64976566e+02
548             	3.64947172e+02
549             	3.64971938e+02
550             	3.64993800e+02
551             	3.64962243e+02
552             	3.64988329e+02
553             	3.65010879e+02
554             	3.64976707e+02
555             	3.65003914e+02
556             	3.65027610e+02
557             	3.64992289e+02
558             	3.65018139e+02
559             	3.65040321e+02
560             	3.65005526e+02
561             	3.65028401e+02
562             	3.65048124e+02
563             	3.65012413e+02
564             	3.65030311e+02
565             	3.65045228e+02
566             	3.65057536e+02
567             	3.65016809e+02
568             	3.64981705e+02
569             	3.64998121e+02
570             	3.64959261e+02
571             	3.64925847e+02
572             	3.64948779e+02
573             	3.64909547e+02
574             	3.64874668e+02
575             	3.64902052e+02
576             	3.64864571e+02
577             	3.64830744e+02
578             	3.64858218e+02
579             	3.64825437e+02
580             	3.64795801e+02
581             	3.64822617e+02
582             	3.64799048e+02
583             	3.64778219e+02
584             	3.64810490e+02
585             	3.64793861e+02
586             	3.64779918e+02
587             	3.64821701e+02
588             	3.64801138e+02
589             	3.64783452e+02
590             	3.64821186e+02
591             	3.64795618e+02
592             	3.64772990e+02
593             	3.64754199e+02
594             	3.64787383e+02
595             	3.64815245e+02
596             	3.64788995e+02
597             	3.64817466e+02
598             	3.64842138e+02
599             	3.64812378e+02
600             	3.64838337e+02
601             	3.64860803e+02
602             	3.64828703e+02
603             	3.64854227e+02
604             	3.64876343e+02
605             	3.64842054e+02
606             	3.64864447e+02
607             	3.64883606e+02
608             	3.64846782e+02
609             	3.64864522e+02
610             	3.64879351e+02
611             	3.64841469e+02
612             	3.64861007e+02
613             	3.64877087e+02
614             	3.64837202e+02
615             	3.64856736e+02
616             	3.64872883e+02
617             	3.64886138e+02
618             	3.64847525e+02
619             	3.64814895e+02
620             	3.64839023e+02
621             	3.64810869e+02
