# Region        : cellZone component_1
# Cells         : 133
# Volume        : 2.41289365e-01
# Time          	volAverage(T)
1               	3.00675095e+02
2               	3.01333404e+02
3               	3.01882699e+02
4               	3.02360381e+02
5               	3.02818091e+02
6               	3.03268382e+02
7               	3.03708178e+02
8               	3.04140823e+02
9               	3.04564221e+02
10              	3.04979599e+02
11              	3.05383105e+02
12              	3.05775305e+02
13              	3.06150581e+02
14              	3.06518169e+02
15              	3.06866892e+02
16              	3.07196138e+02
17              	3.07519636e+02
18              	3.07824837e+02
19              	3.08114367e+02
20              	3.08390651e+02
21              	3.08659060e+02
22              	3.08918049e+02
23              	3.09168129e+02
24              	3.09409054e+02
25              	3.09636462e+02
26              	3.09854913e+02
27              	3.10058980e+02
28              	3.10258620e+02
29              	3.10454721e+02
30              	3.10648345e+02
31              	3.10841815e+02
32              	3.11038577e+02
33              	3.11253782e+02
34              	3.11455599e+02
35              	3.11651158e+02
36              	3.11848199e+02
37              	3.12027930e+02
38              	3.12185886e+02
39              	3.12330445e+02
40              	3.12461253e+02
41              	3.12585312e+02
42              	3.12709353e+02
43              	3.12830852e+02
44              	3.12941194e+02
45              	3.13064539e+02
46              	3.13207394e+02
47              	3.13340309e+02
48              	3.13450242e+02
49              	3.13556846e+02
50              	3.13656847e+02
51              	3.13746694e+02
52              	3.13826177e+02
53              	3.13893428e+02
54              	3.13957327e+02
55              	3.14013660e+02
56              	3.14057312e+02
57              	3.14120524e+02
58              	3.14186650e+02
59              	3.14208273e+02
60              	3.14192822e+02
61              	3.14186929e+02
62              	3.14193438e+02
63              	3.14206135e+02
64              	3.14217465e+02
65              	3.14226969e+02
66              	3.14229187e+02
67              	3.14231247e+02
68              	3.14245336e+02
69              	3.14266523e+02
70              	3.14289207e+02
71              	3.14331737e+02
72              	3.14406186e+02
73              	3.14470324e+02
74              	3.14532791e+02
75              	3.14577288e+02
76              	3.14607718e+02
77              	3.14633762e+02
78              	3.14653465e+02
79              	3.14670114e+02
80              	3.14683878e+02
81              	3.14682984e+02
82              	3.14683707e+02
83              	3.14687861e+02
84              	3.14700964e+02
85              	3.14728458e+02
86              	3.14773881e+02
87              	3.14836935e+02
88              	3.14892883e+02
89              	3.14920244e+02
90              	3.14948444e+02
91              	3.14968030e+02
92              	3.14977078e+02
93              	3.14979251e+02
94              	3.14978971e+02
95              	3.14985333e+02
96              	3.15001817e+02
97              	3.15032681e+02
98              	3.15074340e+02
99              	3.15124750e+02
100             	3.15182107e+02
101             	3.15236653e+02
102             	3.15289942e+02
103             	3.15338192e+02
104             	3.15375662e+02
105             	3.15403925e+02
106             	3.15426438e+02
107             	3.15445704e+02
108             	3.15464200e+02
109             	3.15488127e+02
110             	3.15519410e+02
111             	3.15558239e+02
112             	3.15604381e+02
113             	3.15657303e+02
114             	3.15710167e+02
115             	3.15754605e+02
116             	3.15790760e+02
117             	3.15816964e+02
118             	3.15836457e+02
119             	3.15850973e+02
120             	3.15862827e+02
121             	3.15874622e+02
122             	3.15883326e+02
123             	3.15898204e+02
124             	3.15918224e+02
125             	3.15949801e+02
126             	3.15991163e+02
127             	3.16035437e+02
128             	3.16078859e+02
129             	3.16116616e+02
130             	3.16144841e+02
131             	3.16163877e+02
132             	3.16176284e+02
133             	3.16182306e+02
134             	3.16181153e+02
135             	3.16178636e+02
136             	3.16180868e+02
137             	3.16188475e+02
138             	3.16206220e+02
139             	3.16233614e+02
140             	3.16267445e+02
141             	3.16303454e+02
142             	3.16338579e+02
143             	3.16370928e+02
144             	3.16395983e+02
145             	3.16414007e+02
146             	3.16428028e+02
147             	3.16437519e+02
148             	3.16444386e+02
149             	3.16452055e+02
150             	3.16460854e+02
151             	3.16471663e+02
152             	3.16483545e+02
153             	3.16494924e+02
154             	3.16504465e+02
155             	3.16513789e+02
156             	3.16524177e+02
157             	3.16537402e+02
158             	3.16554767e+02
159             	3.16574834e+02
160             	3.16591111e+02
161             	3.16606324e+02
162             	3.16619034e+02
163             	3.16626485e+02
164             	3.16628706e+02
165             	3.16627775e+02
166             	3.16626971e+02
167             	3.16630647e+02
168             	3.16638555e+02
169             	3.16654104e+02
170             	3.16673885e+02
171             	3.16695228e+02
172             	3.16716953e+02
173             	3.16734605e+02
174             	3.16749074e+02
175             	3.16760791e+02
176             	3.16769119e+02
177             	3.16776062e+02
178             	3.16784600e+02
179             	3.16794997e+02
180             	3.16806710e+02
181             	3.16823324e+02
182             	3.16841676e+02
183             	3.16861059e+02
184             	3.16879483e+02
185             	3.16893727e+02
186             	3.16903248e+02
187             	3.16908963e+02
188             	3.16912135e+02
189             	3.16913940e+02
190             	3.16915910e+02
191             	3.16919232e+02
192             	3.16924286e+02
193             	3.16929379e+02
194             	3.16937790e+02
195             	3.16946693e+02
196             	3.16956396e+02
197             	3.16966429e+02
198             	3.16976408e+02
199             	3.16986276e+02
200             	3.16995380e+02
201             	3.17003786e+02
202             	3.17009553e+02
203             	3.17015538e+02
204             	3.17021968e+02
205             	3.17028436e+02
206             	3.17033970e+02
207             	3.17038539e+02
208             	3.17042437e+02
209             	3.17046059e+02
210             	3.17049949e+02
211             	3.17055083e+02
212             	3.17059208e+02
213             	3.17063427e+02
214             	3.17067967e+02
215             	3.17072793e+02
216             	3.17079043e+02
217             	3.17084926e+02
218             	3.17087526e+02
219             	3.17091677e+02
220             	3.17095825e+02
221             	3.17099285e+02
222             	3.17101713e+02
223             	3.17103059e+02
224             	3.17103473e+02
225             	3.17103119e+02
226             	3.17103732e+02
227             	3.17104374e+02
228             	3.17106276e+02
229             	3.17109657e+02
230             	3.17114394e+02
231             	3.17119609e+02
232             	3.17125550e+02
233             	3.17131270e+02
234             	3.17136460e+02
235             	3.17141247e+02
236             	3.17144868e+02
237             	3.17146976e+02
238             	3.17148636e+02
239             	3.17149571e+02
240             	3.17149745e+02
241             	3.17149049e+02
242             	3.17147939e+02
243             	3.17147936e+02
244             	3.17148153e+02
245             	3.17149568e+02
246             	3.17152367e+02
247             	3.17156185e+02
248             	3.17160637e+02
249             	3.17165597e+02
250             	3.17170792e+02
251             	3.17174693e+02
252             	3.17177241e+02
253             	3.17179551e+02
254             	3.17181572e+02
255             	3.17182661e+02
256             	3.17182984e+02
257             	3.17183377e+02
258             	3.17184546e+02
259             	3.17185808e+02
260             	3.17187274e+02
261             	3.17189156e+02
262             	3.17191634e+02
263             	3.17194514e+02
264             	3.17197685e+02
265             	3.17200772e+02
266             	3.17203613e+02
267             	3.17206095e+02
268             	3.17208412e+02
269             	3.17210305e+02
270             	3.17211871e+02
271             	3.17212826e+02
272             	3.17214224e+02
273             	3.17215400e+02
274             	3.17216443e+02
275             	3.17217529e+02
276             	3.17219130e+02
277             	3.17221453e+02
278             	3.17224270e+02
279             	3.17227434e+02
280             	3.17230904e+02
281             	3.17234334e+02
282             	3.17236831e+02
283             	3.17238416e+02
284             	3.17239846e+02
285             	3.17240742e+02
286             	3.17240916e+02
287             	3.17240487e+02
288             	3.17239776e+02
289             	3.17239385e+02
290             	3.17239538e+02
291             	3.17240297e+02
292             	3.17241490e+02
293             	3.17242935e+02
294             	3.17244338e+02
295             	3.17245948e+02
296             	3.17247756e+02
297             	3.17249325e+02
298             	3.17250527e+02
299             	3.17251647e+02
300             	3.17252347e+02
301             	3.17252834e+02
302             	3.17253551e+02
303             	3.17254416e+02
304             	3.17255200e+02
305             	3.17256139e+02
306             	3.17256848e+02
307             	3.17257255e+02
308             	3.17257528e+02
309             	3.17257756e+02
310             	3.17257978e+02
311             	3.17258131e+02
312             	3.17258474e+02
313             	3.17259274e+02
314             	3.17260274e+02
315             	3.17261327e+02
316             	3.17262270e+02
317             	3.17263166e+02
318             	3.17264002e+02
319             	3.17264526e+02
320             	3.17264844e+02
321             	3.17265250e+02
322             	3.17265828e+02
323             	3.17266469e+02
324             	3.17266925e+02
325             	3.17267688e+02
326             	3.17268738e+02
327             	3.17269565e+02
328             	3.17270471e+02
329             	3.17271713e+02
330             	3.17273039e+02
331             	3.17274217e+02
332             	3.17274888e+02
333             	3.17275465e+02
334             	3.17276078e+02
335             	3.17276362e+02
336             	3.17276508e+02
337             	3.17276589e+02
338             	3.17276779e+02
339             	3.17277343e+02
340             	3.17278285e+02
341             	3.17279434e+02
342             	3.17280897e+02
343             	3.17282017e+02
344             	3.17282954e+02
345             	3.17283862e+02
346             	3.17284344e+02
347             	3.17284641e+02
348             	3.17285032e+02
349             	3.17285499e+02
350             	3.17285407e+02
351             	3.17285121e+02
352             	3.17284679e+02
353             	3.17284435e+02
354             	3.17284320e+02
355             	3.17284194e+02
356             	3.17284546e+02
357             	3.17285448e+02
358             	3.17286325e+02
359             	3.17287048e+02
360             	3.17288596e+02
361             	3.17290647e+02
362             	3.17292430e+02
363             	3.17292726e+02
364             	3.17292755e+02
365             	3.17292477e+02
366             	3.17292154e+02
367             	3.17292202e+02
368             	3.17292408e+02
369             	3.17292498e+02
370             	3.17292787e+02
371             	3.17293148e+02
372             	3.17293220e+02
373             	3.17292996e+02
374             	3.17292636e+02
375             	3.17292235e+02
376             	3.17292211e+02
377             	3.17292409e+02
378             	3.17292640e+02
379             	3.17292913e+02
380             	3.17293324e+02
381             	3.17293803e+02
382             	3.17293922e+02
383             	3.17294114e+02
384             	3.17294566e+02
385             	3.17295198e+02
386             	3.17295959e+02
387             	3.17296921e+02
388             	3.17297704e+02
389             	3.17297795e+02
390             	3.17297829e+02
391             	3.17297873e+02
392             	3.17297905e+02
393             	3.17297915e+02
394             	3.17297823e+02
395             	3.17298203e+02
396             	3.17298799e+02
397             	3.17299330e+02
398             	3.17299964e+02
399             	3.17300725e+02
400             	3.17301797e+02
401             	3.17302370e+02
402             	3.17302804e+02
403             	3.17303239e+02
404             	3.17303697e+02
405             	3.17304065e+02
406             	3.17304298e+02
407             	3.17304463e+02
408             	3.17304696e+02
409             	3.17304830e+02
410             	3.17304945e+02
411             	3.17305168e+02
412             	3.17305542e+02
413             	3.17305955e+02
414             	3.17306209e+02
415             	3.17306183e+02
416             	3.17306051e+02
417             	3.17305813e+02
418             	3.17305455e+02
419             	3.17305069e+02
420             	3.17304894e+02
421             	3.17305047e+02
422             	3.17305386e+02
423             	3.17305717e+02
424             	3.17306064e+02
425             	3.17306478e+02
426             	3.17306775e+02
427             	3.17306992e+02
428             	3.17307219e+02
429             	3.17307503e+02
430             	3.17307784e+02
431             	3.17308051e+02
432             	3.17308332e+02
433             	3.17308690e+02
434             	3.17309058e+02
435             	3.17309194e+02
436             	3.17309297e+02
437             	3.17309478e+02
438             	3.17309706e+02
439             	3.17309934e+02
440             	3.17310265e+02
441             	3.17310570e+02
442             	3.17310975e+02
443             	3.17311433e+02
444             	3.17311838e+02
445             	3.17312143e+02
446             	3.17312261e+02
447             	3.17312193e+02
448             	3.17312063e+02
449             	3.17311942e+02
450             	3.17311919e+02
451             	3.17312002e+02
452             	3.17312256e+02
453             	3.17312703e+02
454             	3.17313133e+02
455             	3.17313433e+02
456             	3.17313719e+02
457             	3.17313934e+02
458             	3.17313986e+02
459             	3.17313709e+02
460             	3.17313385e+02
461             	3.17313181e+02
462             	3.17313051e+02
463             	3.17313032e+02
464             	3.17313183e+02
465             	3.17313490e+02
466             	3.17313882e+02
467             	3.17314273e+02
468             	3.17314593e+02
469             	3.17314771e+02
470             	3.17314864e+02
471             	3.17314962e+02
472             	3.17315042e+02
473             	3.17315069e+02
474             	3.17315028e+02
475             	3.17314932e+02
476             	3.17314845e+02
477             	3.17314824e+02
478             	3.17314933e+02
479             	3.17315108e+02
480             	3.17315274e+02
481             	3.17315557e+02
482             	3.17315899e+02
483             	3.17316163e+02
484             	3.17316306e+02
485             	3.17316333e+02
486             	3.17316319e+02
487             	3.17316271e+02
488             	3.17316211e+02
489             	3.17316166e+02
490             	3.17316132e+02
491             	3.17316084e+02
492             	3.17315836e+02
493             	3.17315564e+02
494             	3.17315301e+02
495             	3.17315040e+02
496             	3.17314773e+02
497             	3.17314557e+02
498             	3.17314700e+02
499             	3.17314953e+02
500             	3.17315252e+02
501             	3.17315551e+02
502             	3.17315908e+02
503             	3.17316264e+02
504             	3.17316555e+02
505             	3.17316557e+02
506             	3.17316529e+02
507             	3.17316495e+02
508             	3.17316442e+02
509             	3.17316373e+02
510             	3.17316306e+02
511             	3.17316257e+02
512             	3.17316218e+02
513             	3.17316185e+02
514             	3.17316154e+02
515             	3.17316116e+02
516             	3.17316053e+02
517             	3.17315977e+02
518             	3.17315904e+02
519             	3.17315848e+02
520             	3.17315845e+02
521             	3.17315848e+02
522             	3.17315883e+02
523             	3.17315936e+02
524             	3.17315992e+02
525             	3.17316039e+02
526             	3.17316052e+02
527             	3.17316029e+02
528             	3.17315999e+02
529             	3.17315968e+02
530             	3.17315939e+02
531             	3.17315960e+02
532             	3.17316002e+02
533             	3.17316061e+02
534             	3.17316158e+02
535             	3.17316225e+02
536             	3.17316300e+02
537             	3.17316346e+02
538             	3.17316363e+02
539             	3.17316360e+02
540             	3.17316346e+02
541             	3.17316322e+02
542             	3.17316292e+02
543             	3.17316265e+02
544             	3.17316251e+02
545             	3.17316255e+02
546             	3.17316289e+02
547             	3.17316368e+02
548             	3.17316452e+02
549             	3.17316563e+02
550             	3.17316687e+02
551             	3.17316809e+02
552             	3.17316928e+02
553             	3.17317022e+02
554             	3.17317094e+02
555             	3.17317144e+02
556             	3.17317173e+02
557             	3.17317177e+02
558             	3.17317137e+02
559             	3.17317075e+02
560             	3.17317006e+02
561             	3.17316927e+02
562             	3.17316857e+02
563             	3.17316818e+02
564             	3.17316789e+02
565             	3.17316771e+02
566             	3.17316773e+02
567             	3.17316815e+02
568             	3.17316863e+02
569             	3.17316906e+02
570             	3.17316953e+02
571             	3.17317017e+02
572             	3.17317086e+02
573             	3.17317149e+02
574             	3.17317205e+02
575             	3.17317249e+02
576             	3.17317283e+02
577             	3.17317312e+02
578             	3.17317342e+02
579             	3.17317352e+02
580             	3.17317329e+02
581             	3.17317295e+02
582             	3.17317277e+02
583             	3.17317265e+02
584             	3.17317257e+02
585             	3.17317255e+02
586             	3.17317263e+02
587             	3.17317279e+02
588             	3.17317298e+02
589             	3.17317321e+02
590             	3.17317353e+02
591             	3.17317391e+02
592             	3.17317427e+02
593             	3.17317449e+02
594             	3.17317461e+02
595             	3.17317465e+02
596             	3.17317465e+02
597             	3.17317472e+02
598             	3.17317497e+02
599             	3.17317541e+02
600             	3.17317602e+02
601             	3.17317665e+02
602             	3.17317694e+02
603             	3.17317703e+02
604             	3.17317693e+02
605             	3.17317673e+02
606             	3.17317654e+02
607             	3.17317639e+02
608             	3.17317627e+02
609             	3.17317615e+02
610             	3.17317618e+02
611             	3.17317624e+02
612             	3.17317643e+02
613             	3.17317657e+02
614             	3.17317663e+02
615             	3.17317668e+02
616             	3.17317678e+02
617             	3.17317691e+02
618             	3.17317707e+02
619             	3.17317730e+02
620             	3.17317751e+02
621             	3.17317772e+02
